"Time (s)","Linear Acceleration x (m/s^2)","Linear Acceleration y (m/s^2)","Linear Acceleration z (m/s^2)","Absolute acceleration (m/s^2)"
2.964166633E-4,-8.524918824E-2,2.434190029E-1,-3.323277441E-1,4.206684735E-1
1.025741667E-2,-3.862524480E-2,2.956884331E-1,-4.240623716E-1,5.184134007E-1
2.021841664E-2,-2.927276954E-2,4.342095566E-1,-3.109864668E-1,5.348900977E-1
3.017941664E-2,-5.866204485E-2,4.536340070E-1,-2.978079756E-1,5.458155715E-1
4.013941664E-2,-9.082582399E-2,5.506404841E-1,-6.064392205E-1,8.241497444E-1
5.010041664E-2,2.636459836E-1,5.683534545E-1,-8.001504584E-1,1.016255681E0
6.006141665E-2,8.539514937E-1,5.792672825E-1,-8.563516295E-1,1.340940659E0
7.002241665E-2,1.863737716E0,7.408948481E-1,-6.856340555E-1,2.119560688E0
7.998341665E-2,3.446946491E0,1.164975858E0,-3.066466268E-1,3.651388916E0
8.994441666E-2,4.666796713E0,1.364190495E0,9.050335005E-2,4.862941304E0
9.990541666E-2,5.238374323E0,1.517206281E0,4.586064792E-1,5.472915160E0
1.098664167E-1,5.412289227E0,1.728770238E0,6.933360080E-1,5.723830539E0
1.198264167E-1,5.045312126E0,1.805880979E0,9.354001379E-1,5.439793560E0
1.297874167E-1,4.246321682E0,1.776135609E0,1.133667526E0,4.740369984E0
1.397484167E-1,2.822513853E0,1.857829397E0,1.381407037E0,3.650534197E0
1.497094166E-1,9.275403106E-1,1.629592105E0,2.304163156E0,2.970701820E0
1.596704166E-1,-1.750137718E0,9.390961629E-1,3.871946683E0,4.351649659E0
1.696314166E-1,-5.134761661E0,1.263518983E0,5.066677852E0,7.323488376E0
1.795924167E-1,-7.326745400E0,1.222876741E0,5.942093743E0,9.512365832E0
1.895534167E-1,-9.120455400E0,5.025646770E-1,6.592401187E0,1.126476948E1
1.995134167E-1,-1.107839439E1,1.717140126E-1,6.655183911E0,1.292485129E1
2.094744167E-1,-1.226055288E1,3.157092994E-1,5.693053812E0,1.352152694E1
2.194354167E-1,-1.211563198E1,-5.769430143E-1,4.568637750E0,1.296124424E1
2.293964167E-1,-1.164779157E1,-1.660915639E0,3.751198464E0,1.234913678E1
2.393574167E-1,-1.144858512E1,-1.964401335E0,3.460441865E0,1.212038084E1
2.493184167E-1,-1.111958218E1,-2.886235932E0,3.465255585E0,1.199931089E1
2.592794166E-1,-1.018055443E1,-4.081768169E0,2.709308250E0,1.129800297E1
2.692404166E-1,-9.276684231E0,-4.600208622E0,1.915077439E0,1.053025694E1
2.792004166E-1,-8.194954598E0,-5.385414839E0,1.071157283E0,9.864448884E0
2.891614166E-1,-6.875310531E0,-5.897849032E0,5.722085238E-2,9.058575623E0
2.991224166E-1,-6.017077267E0,-6.091521093E0,-7.429296792E-2,8.562556132E0
3.090834167E-1,-4.656179924E0,-6.754244515E0,-7.233026227E-1,8.235471883E0
3.190444167E-1,-1.932355084E0,-6.769360152E0,-2.353714215E0,7.422816423E0
3.290054167E-1,5.544797659E-1,-6.310599307E0,-3.460706744E0,7.218559592E0
3.389664167E-1,2.832528087E0,-5.910645078E0,-3.668950651E0,7.511334068E0
3.489276667E-1,5.112731692E0,-5.017396933E0,-3.274372938E0,7.876281830E0
3.588886666E-1,7.173131443E0,-4.362163210E0,-2.919921157E0,8.888656936E0
3.688486667E-1,8.327767085E0,-3.997818525E0,-2.984725263E0,9.707875281E0
3.788096666E-1,8.616599073E0,-4.105551719E0,-3.155963897E0,1.005293204E1
3.887706666E-1,9.072028175E0,-4.575450926E0,-3.950827376E0,1.090162755E1
3.987316666E-1,9.995418717E0,-5.147506253E0,-5.515175664E0,1.252287421E1
4.086926666E-1,1.113759043E1,-5.657514435E0,-7.455128036E0,1.454758826E1
4.186536667E-1,1.257120375E1,-5.854550400E0,-9.156403497E0,1.661778111E1
4.286146667E-1,1.418856699E1,-5.726900420E0,-1.031427089E1,1.845256095E1
4.385746667E-1,1.587153014E1,-5.593709618E0,-1.102544318E1,2.011853507E1
4.485356667E-1,1.753338133E1,-5.490011587E0,-1.124534409E1,2.154106432E1
4.584966667E-1,1.886056831E1,-5.572122282E0,-1.131485462E1,2.268910573E1
4.684576667E-1,1.897950301E1,-6.008347959E0,-1.093635149E1,2.271399489E1
4.784186667E-1,1.809273768E1,-7.060416421E0,-9.458460717E0,2.160229423E1
4.883796666E-1,1.621471960E1,-8.398534182E0,-6.858860559E0,1.950631888E1
4.983406666E-1,1.410811515E1,-9.749808177E0,-3.287161383E0,1.746147481E1
5.083016666E-1,1.206532838E1,-1.086992946E1,4.637479359E-1,1.624630966E1
5.182626667E-1,1.013368198E1,-1.176425291E1,3.834711029E0,1.599356638E1
5.282226666E-1,8.438661869E0,-1.233671169E1,6.062473880E0,1.612944695E1
5.381836666E-1,6.598303367E0,-1.274738854E1,6.833007095E0,1.589727989E1
5.481446667E-1,4.312207523E0,-1.305290322E1,6.692056453E0,1.528911495E1
5.581056667E-1,1.816884124E0,-1.333193235E1,5.570165219E0,1.456256258E1
5.680666667E-1,-1.289615399E0,-1.342801029E1,3.951298369E0,1.405657594E1
5.780276667E-1,-4.806829927E0,-1.296392731E1,2.412651372E0,1.403530947E1
5.879886667E-1,-8.479987650E0,-1.192760657E1,1.388274007E0,1.470052019E1
5.979496666E-1,-1.216405160E1,-1.084337258E1,1.832773494E0,1.639822975E1
6.079096667E-1,-1.584265659E1,-9.665542783E0,3.819562647E0,1.894733606E1
6.178706666E-1,-1.981596359E1,-8.168429874E0,6.520410268E0,2.240337942E1
6.278316666E-1,-2.419930775E1,-6.624102452E0,9.158479843E0,2.670885587E1
6.377926666E-1,-2.714948766E1,-5.182555048E0,1.051450646E1,2.957208824E1
6.477536666E-1,-2.716113298E1,-3.745260324E0,9.388161982E0,2.898088516E1
6.577146667E-1,-2.591311730E1,-2.719103798E0,7.149895778E0,2.701858959E1
6.676756667E-1,-2.535621211E1,-2.383221604E0,5.393851787E0,2.603288065E1
6.776366667E-1,-2.534615256E1,-2.200394374E0,4.560037665E0,2.584691720E1
6.875966667E-1,-2.451982171E1,-2.341978269E0,4.212674464E0,2.498906050E1
6.975576667E-1,-2.288306442E1,-2.844110836E0,4.180090270E0,2.343494738E1
7.075186667E-1,-2.064125130E1,-3.567375160E0,4.400216889E0,2.140442312E1
7.174796667E-1,-1.802618701E1,-4.409785273E0,4.484960586E0,1.909200083E1
7.274406666E-1,-1.574955722E1,-5.458221445E0,4.554543329E0,1.727960066E1
7.374016666E-1,-1.378937641E1,-6.751948898E0,4.673440320E0,1.604919811E1
7.473626666E-1,-1.192915374E1,-7.797749146E0,4.838193222E0,1.505050545E1
7.573236667E-1,-9.655908326E0,-8.707415687E0,4.777336279E0,1.385202496E1
7.672836666E-1,-7.135466604E0,-9.457266131E0,4.202730689E0,1.257050960E1
7.772446666E-1,-4.644243418E0,-9.903847811E0,3.325055141E0,1.143289946E1
7.872056667E-1,-2.118653222E0,-9.983994427E0,2.608532657E0,1.053438555E1
7.971666667E-1,4.838562182E-1,-9.933507228E0,2.429394727E0,1.023770684E1
8.071276667E-1,3.071224001E0,-9.733962808E0,2.529487950E0,1.051573859E1
8.170886667E-1,5.425975220E0,-9.214205562E0,2.787512420E0,1.105047586E1
8.270496667E-1,7.454308841E0,-8.934836708E0,3.108348558E0,1.204407979E1
8.370106666E-1,9.387643919E0,-8.939299888E0,2.911658164E0,1.328595853E1
8.469706667E-1,1.091230540E1,-8.943038598E0,2.402165121E0,1.431176948E1
8.569316666E-1,1.215357105E1,-9.036136211E0,1.443495404E0,1.521330753E1
8.668926666E-1,1.332292296E1,-8.948586436E0,-2.805225098E-1,1.605167183E1
8.768536666E-1,1.424911491E1,-8.755420159E0,-2.300780541E0,1.688159497E1
8.868146667E-1,1.506418753E1,-8.581263179E0,-4.326008121E0,1.786846860E1
8.967756667E-1,1.617711148E1,-8.147641852E0,-6.664206165E0,1.930012040E1
9.067366667E-1,1.766141898E1,-7.274572449E0,-9.225816963E0,2.121228002E1
9.166976667E-1,1.918830475E1,-6.274709097E0,-1.128522093E1,2.312832084E1
9.266576667E-1,2.093261571E1,-5.040489342E0,-1.230078172E1,2.479697894E1
9.366186667E-1,2.209350320E1,-4.059680897E0,-1.235127009E1,2.563508856E1
9.465796667E-1,2.216485560E1,-3.581015545E0,-1.132254839E1,2.514566758E1
9.565406667E-1,2.125325831E1,-3.733562384E0,-9.504099405E0,2.357898179E1
9.665016666E-1,1.919487234E1,-4.049228414E0,-7.404567162E0,2.096823764E1
9.764626666E-1,1.667330035E1,-4.553655429E0,-5.177800677E0,1.804284740E1
9.864236666E-1,1.406097022E1,-5.131960845E0,-2.956542853E0,1.525742610E1
9.963846667E-1,1.182820975E1,-5.652243755E0,-9.858487451E-1,1.314634182E1
1.006344667E0,1.014169968E1,-6.218567641E0,7.097961393E-1,1.191756965E1
1.016305667E0,8.835038186E0,-6.823218271E0,2.105357823E0,1.135987407E1
1.026266667E0,7.513965644E0,-7.466132496E0,3.384183940E0,1.112005014E1
1.036227667E0,6.172827212E0,-8.104546119E0,4.444813018E0,1.111502705E1
1.046188667E0,4.950518235E0,-8.644793762E0,4.829221547E0,1.107074843E1
1.056149667E0,4.193735332E0,-9.111378767E0,4.273395460E0,1.090259363E1
1.066110667E0,3.359785556E0,-9.341126395E0,3.427979293E0,1.050218279E1
1.076071667E0,2.096330307E0,-9.653519738E0,3.200348357E0,1.038399122E1
1.086032667E0,1.012392619E0,-9.697045242E0,3.114393117E0,1.023509012E1
1.095992667E0,-4.386581182E-2,-9.540040485E0,2.875806838E0,9.964163871E0
1.105953667E0,-1.103205725E0,-9.231668272E0,2.883249174E0,9.734160866E0
1.115914667E0,-1.936962837E0,-8.981140224E0,3.332303934E0,9.773277560E0
1.125875667E0,-3.072734045E0,-8.559998610E0,3.515597481E0,9.750625434E0
1.135836667E0,-4.785458938E0,-8.575610676E0,3.534998542E0,1.043733349E1
1.145797667E0,-6.349517205E0,-8.514509611E0,3.175982425E0,1.108603207E1
1.155758667E0,-7.741139327E0,-7.838396065E0,2.910324122E0,1.139454595E1
1.165718667E0,-8.393696780E0,-7.238734864E0,2.354900908E0,1.133132765E1
1.175679667E0,-8.410691128E0,-6.492761124E0,1.562605818E0,1.073952556E1
1.185640667E0,-7.594771240E0,-5.635752268E0,1.015460507E0,9.511751356E0
1.195601667E0,-6.395006204E0,-4.950886610E0,3.540325356E-1,8.095228323E0
1.205562667E0,-5.342795069E0,-4.383526012E0,-2.520398453E-1,6.915510360E0
1.215523667E0,-4.561265873E0,-3.830201072E0,-7.844972429E-1,6.007580423E0
1.225484667E0,-4.117481501E0,-3.449370162E0,-1.190840724E0,5.501809707E0
1.235445667E0,-4.001322761E0,-3.202952122E0,-1.508826344E0,5.342849715E0
1.245406667E0,-4.197249509E0,-3.093378224E0,-1.831533007E0,5.526337434E0
1.255366667E0,-4.812164342E0,-2.981047949E0,-2.101918491E0,6.038346949E0
1.265327667E0,-6.050191804E0,-3.034909576E0,-2.268358900E0,7.138693795E0
1.275288667E0,-7.401048308E0,-3.133518775E0,-2.334643521E0,8.369290074E0
1.285249667E0,-8.141173078E0,-2.930744353E0,-2.335739874E0,8.962345804E0
1.295210667E0,-7.917000185E0,-2.564837292E0,-2.232034242E0,8.616220698E0
1.305171667E0,-6.994478540E0,-2.041318533E0,-1.971924362E0,7.548390364E0
1.315132667E0,-5.709731240E0,-1.550628966E0,-1.579139113E0,6.123655882E0
1.325092667E0,-4.370324754E0,-1.134953329E0,-1.146506842E0,4.658576548E0
1.335053667E0,-3.192296741E0,-7.245226443E-1,-8.027668682E-1,3.370478629E0
1.345014667E0,-2.324296288E0,-4.284909797E-1,-6.157389978E-1,2.442353838E0
1.354976125E0,-1.832993349E0,-1.088552749E-1,-6.087053820E-1,1.934486064E0
1.364937125E0,-1.551545810E0,1.005732787E-1,-5.886239970E-1,1.662494389E0
1.374898125E0,-1.426535262E0,2.099366766E-1,-4.075848448E-1,1.498399703E0
1.384859125E0,-1.228150345E0,2.815428489E-1,-1.874934550E-1,1.273881251E0
1.394820125E0,-1.028416475E0,3.487811512E-1,7.862297729E-2,1.088793052E0
1.404780125E0,-9.006594908E-1,3.893362695E-1,3.107818508E-1,1.029250022E0
1.414741125E0,-8.503137946E-1,3.913231534E-1,3.497417025E-1,9.992430226E-1
1.424702125E0,-8.680729580E-1,4.126584738E-1,2.421554196E-1,9.911997395E-1
1.434663125E0,-8.210923344E-1,4.670913738E-1,1.839629062E-1,9.623976953E-1
1.444624125E0,-6.974927205E-1,4.521131462E-1,2.236257394E-1,8.607617925E-1
1.454585125E0,-5.116787320E-1,4.893347669E-1,2.018401833E-1,7.362085971E-1
1.464546125E0,-3.233463478E-1,5.202951890E-1,2.460522965E-1,6.601527679E-1
1.474507125E0,-9.262925148E-2,5.070348734E-1,3.171376280E-1,6.051783342E-1
1.484467125E0,1.887633240E-1,4.988341534E-1,3.292928199E-1,6.268180489E-1
1.494428125E0,4.121053272E-1,4.981722486E-1,3.418046920E-1,7.313253978E-1
1.504389125E0,5.434209269E-1,4.466179329E-1,3.483350086E-1,7.849274871E-1
1.514350125E0,5.732750559E-1,3.692177546E-1,4.308706503E-1,8.066074369E-1
1.524311125E0,4.575756150E-1,2.454976881E-1,5.449205916E-1,7.527170846E-1
1.534272125E0,3.165051055E-1,1.783798385E-1,5.815943281E-1,6.857454419E-1
1.544233125E0,1.641167253E-1,6.449946642E-2,4.096452574E-1,4.459862303E-1
1.554194125E0,4.016978681E-2,-2.482435405E-2,1.950854798E-1,2.007192187E-1
1.564154125E0,-1.012041932E-1,-7.827316761E-2,3.273022816E-2,1.320615210E-1
1.574115125E0,-1.369148934E-1,-1.383708501E-1,-9.605791256E-2,2.170698108E-1
1.584076125E0,-3.855361640E-2,-1.546114916E-1,-1.489262438E-1,2.181057559E-1
1.594037125E0,7.070570111E-2,-1.544150251E-1,-1.219565463E-1,2.090853781E-1
1.603998125E0,2.667517322E-1,-1.928908736E-1,-1.444836755E-1,3.594981338E-1
1.613959125E0,4.028111780E-1,-1.435965067E-1,-1.480047226E-1,4.525286728E-1
1.623920125E0,4.707926613E-1,-1.078220719E-1,-6.224229500E-2,4.869758027E-1
1.633881125E0,5.239941376E-1,-3.956927776E-2,4.784776568E-2,5.276599215E-1
1.643841125E0,4.933985817E-1,2.786782980E-3,1.285909434E-1,5.098877890E-1
1.653802125E0,4.579679632E-1,1.175933540E-2,2.524523664E-1,5.230727813E-1
1.663763125E0,4.620697850E-1,5.355757177E-2,3.180245045E-1,5.634860115E-1
1.673724125E0,4.141530222E-1,6.742775202E-2,2.745302832E-1,5.014340474E-1
1.683685125E0,3.895613873E-1,2.541667700E-2,1.798534830E-1,4.298271249E-1
1.693646125E0,3.222067255E-1,3.947455287E-2,1.619889235E-1,3.627889547E-1
1.703607125E0,1.812993532E-1,4.539018095E-2,1.592568120E-1,2.455452223E-1
1.713568125E0,1.677694809E-1,4.942534447E-2,1.339037235E-1,2.202718107E-1
1.723528125E0,3.206127745E-1,8.462675214E-2,6.788281158E-2,3.384705518E-1
1.733489125E0,4.227548611E-1,1.019005966E-1,5.957377195E-2,4.389241831E-1
1.743450125E0,4.658394849E-1,1.349917442E-1,1.222220099E-1,5.001673884E-1
1.753411125E0,4.623305708E-1,1.415482271E-1,1.045806679E-1,4.946944243E-1
1.763372125E0,3.826242507E-1,1.645435721E-1,4.038189456E-2,4.184574073E-1
1.773333125E0,1.874821991E-1,1.677367365E-1,-5.239909217E-2,2.569646914E-1
1.783294125E0,-3.893310070E-2,1.695622373E-1,-9.246187493E-2,1.970186208E-1
1.793255125E0,-2.530815268E-1,1.451618063E-1,-1.102586067E-1,3.118960877E-1
1.803215125E0,-5.585500127E-1,4.209644437E-2,-1.062599882E-1,5.701240325E-1
1.813176125E0,-7.807553172E-1,-5.380607843E-3,-2.272915050E-2,7.811046220E-1
1.823137125E0,-9.165095383E-1,-1.138160527E-2,8.447852522E-2,9.204650433E-1
1.833098125E0,-9.455947584E-1,-5.484629810E-2,2.658693874E-1,9.837906762E-1
1.843059125E0,-9.864697194E-1,-6.943685532E-2,4.358457537E-1,1.080696768E0
1.853020125E0,-1.081413299E0,-8.572427452E-2,5.494733799E-1,1.216028112E0
1.862981125E0,-1.221949958E0,-1.157912421E-1,6.327285214E-1,1.380910820E0
1.872941125E0,-1.540996263E0,-1.721478760E-1,6.485415852E-1,1.680747025E0
1.882902125E0,-2.029887811E0,-2.531043309E-1,6.240766887E-1,2.138686055E0
1.892863125E0,-2.571423011E0,-3.065537292E-1,5.611983629E-1,2.649742458E0
1.902824125E0,-3.143050321E0,-4.359280533E-1,4.762184389E-1,3.208673027E0
1.912785125E0,-3.699133978E0,-6.124537396E-1,3.801206191E-1,3.768711114E0
1.922746125E0,-4.264686032E0,-8.161572844E-1,3.334000504E-1,4.354861107E0
1.932707125E0,-5.007726808E0,-1.046655110E0,5.188585281E-1,5.142181335E0
1.942668125E0,-5.865393476E0,-1.402200320E0,8.925013094E-1,6.096356696E0
1.952628125E0,-6.498780833E0,-1.747636279E0,1.091203731E0,6.817558981E0
1.962589125E0,-6.992508028E0,-2.116384503E0,1.039758465E0,7.379386801E0
1.972550125E0,-7.442923143E0,-2.482164679E0,8.204323299E-1,7.888685291E0
1.982511125E0,-8.045652963E0,-2.807337112E0,5.209714195E-1,8.537276175E0
1.992472125E0,-8.769026045E0,-3.126607951E0,4.240986975E-1,9.319407425E0
2.002433125E0,-9.404573947E0,-3.396438827E0,3.655571052E-1,1.000577033E1
2.012394125E0,-1.042226078E1,-3.940618722E0,4.664426252E-1,1.115211031E1
2.022354125E0,-1.137417463E1,-4.713169227E0,8.942985973E-1,1.234445554E1
2.032315125E0,-1.175050143E1,-5.683863743E0,1.668575492E0,1.315920723E1
2.042276125E0,-1.168794207E1,-6.848329723E0,2.230356384E0,1.372887830E1
2.052237125E0,-1.146345810E1,-7.950145712E0,2.302347595E0,1.413918289E1
2.062198125E0,-1.117583941E1,-8.730882318E0,2.330043224E0,1.437208384E1
2.072159125E0,-1.085970619E1,-9.243598931E0,2.931156289E0,1.455915577E1
2.082120125E0,-1.008816140E1,-9.871416814E0,3.635380324E0,1.457504239E1
2.092081125E0,-8.627956120E0,-1.039422689E1,3.444031654E0,1.394069344E1
2.102041125E0,-6.464673439E0,-1.065926363E1,2.389767270E0,1.269341922E1
2.112002125E0,-3.225862682E0,-1.046850407E1,1.063738628E0,1.100578518E1
2.121963125E0,1.640041664E-1,-9.693631053E0,4.322486928E-1,9.704649365E0
2.131924125E0,3.282924783E0,-8.739696996E0,1.037902998E0,9.393462692E0
2.141885125E0,6.087396467E0,-7.445355000E0,2.333774040E0,9.896272434E0
2.151846125E0,8.177077906E0,-6.489240516E0,3.717111828E0,1.108114461E1
2.161807125E0,9.849232478E0,-6.253767294E0,4.688892464E0,1.257388955E1
2.171768125E0,1.159976138E1,-6.627292108E0,4.338838082E0,1.404638674E1
2.181728125E0,1.324048658E1,-7.434530050E0,2.722723809E0,1.542711726E1
2.191689125E0,1.465025144E1,-8.337352425E0,6.369401246E-1,1.686852114E1
2.201650125E0,1.602180592E1,-8.889733626E0,-1.526145212E0,1.838626520E1
2.211611125E0,1.731546964E1,-9.251097400E0,-3.989117283E0,2.003300648E1
2.221572125E0,1.855617162E1,-9.253191288E0,-6.562631258E0,2.174905017E1
2.231533125E0,1.978726545E1,-8.830179150E0,-8.958071789E0,2.344685454E1
2.241494125E0,2.101824936E1,-8.166369900E0,-1.094623679E1,2.506544441E1
2.251454125E0,2.184438375E1,-7.426763778E0,-1.198290018E1,2.599853492E1
2.261415125E0,2.210644192E1,-7.006474103E0,-1.207629893E1,2.614617466E1
2.271376125E0,2.135918881E1,-6.881680487E0,-1.178253130E1,2.534562125E1
2.281337125E0,1.963881634E1,-7.144134516E0,-1.093985514E1,2.358817915E1
2.291298125E0,1.735225447E1,-7.774890625E0,-9.139227886E0,2.109680416E1
2.301259125E0,1.480407531E1,-8.579790850E0,-6.097741946E0,1.816468865E1
2.311220125E0,1.264356187E1,-9.353904900E0,-2.281649913E0,1.589217166E1
2.321180125E0,1.114390543E1,-9.913555359E0,1.190916445E0,1.496273671E1
2.331141125E0,9.933939922E0,-1.029788466E1,3.951757376E0,1.484405528E1
2.341102125E0,8.878856635E0,-1.059722702E1,5.815378148E0,1.499846454E1
2.351066000E0,8.178689398E0,-1.081760623E1,6.676166060E0,1.511564614E1
2.361027000E0,7.598512874E0,-1.105673397E1,6.598350145E0,1.495081899E1
2.370988000E0,6.899464209E0,-1.154382925E1,5.865131521E0,1.467182224E1
2.380949000E0,5.742689071E0,-1.205396139E1,4.879338032E0,1.421563937E1
2.390910000E0,4.328959503E0,-1.249076828E1,3.546930370E0,1.368721658E1
2.400870000E0,2.650273883E0,-1.272223850E1,2.097907009E0,1.316360581E1
2.410831000E0,3.715059163E-1,-1.292054682E1,1.261365746E0,1.298728572E1
2.420792000E0,-2.601668319E0,-1.300917190E1,4.373822558E-1,1.327397961E1
2.430753000E0,-5.830422449E0,-1.272263143E1,-1.282632069E-1,1.399555744E1
2.440714000E0,-9.614738665E0,-1.221242678E1,-1.767481729E-2,1.554306533E1
2.450675000E0,-1.363464505E1,-1.165237345E1,1.877078139E0,1.803343492E1
2.460636000E0,-1.831913251E1,-1.033764455E1,5.757566142E0,2.180841761E1
2.470596000E0,-2.454381868E1,-8.736633639E0,9.870162002E0,2.785943109E1
2.480557000E0,-2.977216970E1,-7.583517689E0,1.222763422E1,3.306670332E1
2.490518000E0,-3.062858799E1,-6.991242691E0,1.040847188E1,3.309568195E1
2.500479000E0,-2.854231314E1,-6.331041757E0,5.577441494E0,2.976329254E1
2.510440000E0,-2.733819134E1,-5.919020045E0,1.431667217E0,2.800823406E1
2.520401000E0,-2.682768732E1,-5.605414574E0,-1.104832567E0,2.742929336E1
2.530362000E0,-2.554256287E1,-5.274101395E0,-2.660800041E0,2.621676030E1
2.540322000E0,-2.310413595E1,-5.372362685E0,-3.110473144E0,2.392359551E1
2.550283000E0,-1.963541326E1,-5.971722170E0,-2.282296762E0,2.064993458E1
2.560244000E0,-1.608879279E1,-6.592760206E0,-6.668524334E-1,1.739995497E1
2.570205000E0,-1.293620683E1,-7.008143483E0,8.944380534E-1,1.473972665E1
2.580166000E0,-1.069189227E1,-7.478404047E0,2.186006276E0,1.322957712E1
2.590127000E0,-9.034371521E0,-7.910930775E0,3.429657444E0,1.248860459E1
2.600088000E0,-7.748713226E0,-8.300539525E0,4.424901495E0,1.218693014E1
2.610049000E0,-6.714406850E0,-8.766580154E0,5.061821154E0,1.214735446E1
2.620009000E0,-5.831523480E0,-9.409242949E0,5.031069478E0,1.215944814E1
2.629970000E0,-4.685941667E0,-9.842508180E0,4.206005130E0,1.168432693E1
2.639931000E0,-3.008684814E0,-9.775828872E0,3.073823966E0,1.068023446E1
2.649892000E0,-7.216048837E-1,-9.525915951E0,1.943543293E0,9.748905008E0
2.659853000E0,1.831510495E0,-8.785790012E0,1.509770962E0,9.100766187E0
2.669814000E0,4.094191164E0,-7.992246834E0,1.962232310E0,9.191777107E0
2.679775000E0,5.754388765E0,-7.366487170E0,3.008785386E0,9.819924276E0
2.689735000E0,7.245748599E0,-6.959725614E0,3.989009110E0,1.080975703E1
