"Time (s)","Linear Acceleration x (m/s^2)","Linear Acceleration y (m/s^2)","Linear Acceleration z (m/s^2)","Absolute acceleration (m/s^2)"
2.233708336E-3,5.785023936E-1,1.494221461E0,-2.775381640E-1,1.626158119E0
1.219370833E-2,-5.684187971E-2,1.835521100E0,-4.164112169E-1,1.883020714E0
2.215370833E-2,-2.201334167E-1,2.506079791E0,-2.772774513E-1,2.530963735E0
3.211370832E-2,-3.688766427E-1,2.851519259E0,-4.836121700E-1,2.915666783E0
4.207370835E-2,2.963675871E-2,3.141156408E0,-4.400222737E-1,3.171964930E0
5.203370834E-2,2.359907732E-1,3.269642540E0,-3.342771327E-1,3.295147218E0
6.199370834E-2,5.251288629E-1,3.220118378E0,1.376702806E-1,3.265559033E0
7.195370834E-2,9.527175441E-1,3.114915859E0,5.423759564E-1,3.302202780E0
8.191370833E-2,1.468011902E0,2.992696772E0,9.076879171E-1,3.454734472E0
9.187470833E-2,2.141186345E0,2.917260674E0,1.237323457E0,3.824402978E0
1.018347083E-1,2.886569223E0,2.706035855E0,1.327170019E0,4.173283143E0
1.117947083E-1,3.456027217E0,2.377766737E0,1.144707581E0,4.348362246E0
1.217547083E-1,3.946819110E0,2.077330365E0,6.721994197E-1,4.510491613E0
1.317147083E-1,4.242108763E0,1.660580594E0,8.578800917E-2,4.556355369E0
1.416747083E-1,4.222749801E0,9.026504678E-1,-4.343194842E-1,4.339934005E0
1.516347083E-1,4.054493832E0,8.449811339E-2,-9.169381392E-1,4.157744066E0
1.615947083E-1,3.785595295E0,-5.078131378E-1,-1.410751873E0,4.071710545E0
1.715547083E-1,3.464227937E0,-1.173043261E0,-1.693298689E0,4.030405208E0
1.815157083E-1,3.448167974E0,-1.885345225E0,-1.798463202E0,4.321904543E0
1.914757083E-1,3.753792581E0,-2.392225147E0,-1.601499742E0,4.730592069E0
2.014357083E-1,3.979575212E0,-2.924113610E0,-1.059158796E0,5.050670909E0
2.113957083E-1,4.094249051E0,-3.437497391E0,-1.921885864E-1,5.349411188E0
2.213557083E-1,4.113658884E0,-3.895668837E0,6.882278073E-1,5.707195687E0
2.313157083E-1,4.046474376E0,-4.380390151E0,1.369375806E0,6.118575230E0
2.412757083E-1,3.856699483E0,-4.767700945E0,1.522155365E0,6.318390630E0
2.512357083E-1,3.508836345E0,-5.157239528E0,1.186184878E0,6.349494988E0
2.611957083E-1,2.968245763E0,-5.679815716E0,6.334054828E-1,6.439875152E0
2.711567083E-1,2.221337346E0,-6.238861572E0,7.489471950E-2,6.622940626E0
2.811167083E-1,1.375667556E0,-6.768034589E0,-5.070096572E-1,6.925013517E0
2.910767083E-1,5.630780234E-1,-7.163587618E0,-1.080688171E0,7.266493745E0
3.010367083E-1,-2.333787489E-1,-7.522953984E0,-1.634189186E0,7.701939793E0
3.109967083E-1,-7.486690868E-1,-7.841754706E0,-2.156404016E0,8.167233347E0
3.209567083E-1,-1.038626664E0,-8.191661446E0,-2.511187334E0,8.630650290E0
3.309167083E-1,-1.399188420E0,-8.559716190E0,-2.783146012E0,9.108917126E0
3.408767083E-1,-1.690604877E0,-8.807047564E0,-3.002459868E0,9.457113561E0
3.508367083E-1,-1.878153734E0,-9.032070642E0,-2.941350617E0,9.682835586E0
3.607977083E-1,-2.191900416E0,-9.234898859E0,-2.786980616E0,9.892170910E0
3.707577083E-1,-2.808862066E0,-9.398540205E0,-2.588106287E0,1.014497700E1
3.807177083E-1,-3.826781912E0,-9.347423261E0,-2.179082442E0,1.033281093E1
3.906777083E-1,-5.201419920E0,-9.184395872E0,-1.418494756E0,1.064988376E1
4.006377083E-1,-6.572677944E0,-8.634964008E0,-4.134262864E-1,1.085972468E1
4.105977083E-1,-7.520894009E0,-7.915613226E0,4.696723348E-1,1.092892362E1
4.205577083E-1,-8.021404560E0,-7.467843391E0,9.501381911E-1,1.100065355E1
4.305177083E-1,-8.342419038E0,-6.973589947E0,1.211663828E0,1.094052290E1
4.404777083E-1,-8.452626774E0,-6.287617995E0,1.205645289E0,1.060351923E1
4.504387083E-1,-8.597865763E0,-5.640697843E0,1.141223298E0,1.034616637E1
4.603987083E-1,-8.788562177E0,-4.861615414E0,1.420319380E0,1.014354163E1
4.703587083E-1,-8.864853723E0,-3.763570880E0,2.005066381E0,9.837194137E0
4.803187083E-1,-8.835910590E0,-2.649524855E0,2.946904303E0,9.683880570E0
4.902787083E-1,-8.827090650E0,-1.568141962E0,4.020570626E0,9.825557832E0
5.002387083E-1,-8.690901396E0,-5.285976505E-1,5.242106016E0,1.016321101E1
5.101984167E-1,-8.531570617E0,2.321736377E-1,6.626408594E0,1.080513270E1
5.201584167E-1,-8.252081310E0,9.425343257E-1,8.208003244E0,1.167718006E1
5.301194167E-1,-7.724216900E0,1.930056544E0,9.759905149E0,1.259541161E1
5.400794167E-1,-7.154699265E0,2.691289178E0,1.109552907E1,1.347380883E1
5.500394167E-1,-6.371418536E0,3.290473246E0,1.201131882E1,1.398906602E1
5.599994167E-1,-5.410698785E0,4.111222349E0,1.227676019E1,1.403198672E1
5.699594167E-1,-4.573425450E0,4.812033364E0,1.212531613E1,1.382371791E1
5.799194167E-1,-3.740873450E0,5.581207686E0,1.157702389E1,1.338549572E1
5.898794167E-1,-2.833468612E0,6.232706208E0,1.074662104E1,1.274225391E1
5.998394167E-1,-1.942911209E0,6.799089151E0,9.932819595E0,1.219276106E1
6.097994167E-1,-1.443591591E0,7.182058972E0,9.406567263E0,1.192264381E1
6.197604167E-1,-1.006358000E0,7.447791535E0,9.298656313E0,1.195605974E1
6.297204167E-1,-5.855844681E-1,7.643220100E0,9.279553460E0,1.203627164E1
6.396804167E-1,-4.058156236E-1,7.741145759E0,9.526793618E0,1.228209350E1
6.496404167E-1,-4.862734571E-2,7.690584885E0,9.738334186E0,1.240897309E1
6.596004167E-1,2.325667168E-1,7.648451604E0,9.764442589E0,1.240553257E1
6.695604167E-1,8.824813744E-1,7.454942095E0,9.640638322E0,1.221870870E1
6.795204167E-1,1.644291274E0,7.027746273E0,9.115526197E0,1.162693981E1
6.894804167E-1,2.271547971E0,6.609386179E0,8.215395294E0,1.078594621E1
6.994414167E-1,2.777528007E0,6.331427674E0,7.353703988E0,1.009349298E1
7.094014167E-1,3.248495500E0,6.027100564E0,6.903836757E0,9.723251832E0
7.193614167E-1,4.116293347E0,5.612175710E0,6.567717751E0,9.569498606E0
7.293214167E-1,5.440634775E0,5.115041927E0,6.084584541E0,9.632566102E0
7.392814167E-1,6.800585454E0,4.575390115E0,5.533360505E0,9.889400168E0
7.492414167E-1,8.177284312E0,4.140143847E0,4.809483978E0,1.035084083E1
7.592014167E-1,9.204975733E0,3.633783742E0,4.207680942E0,1.075362922E1
7.691614167E-1,1.009071781E1,3.141897250E0,3.592902934E0,1.116257388E1
7.791224167E-1,1.092201880E1,2.661679462E0,2.969303232E0,1.162720060E1
7.890824167E-1,1.165018309E1,2.109827435E0,2.322478097E0,1.206532396E1
7.990424167E-1,1.218973608E1,1.480735443E0,1.869623524E0,1.242085888E1
8.090024167E-1,1.238041963E1,9.367292100E-1,1.534733603E0,1.251030212E1
8.189624167E-1,1.193878294E1,4.473008877E-1,1.428328896E0,1.203223751E1
8.289224167E-1,1.092377062E1,-3.520006281E-1,1.616342607E0,1.104831356E1
8.388824167E-1,9.819147384E0,-1.089861356E0,1.622174035E0,1.001173820E1
8.488424167E-1,8.710838647E0,-1.713139461E0,1.414563673E0,8.989691159E0
8.588024167E-1,7.669753010E0,-2.319244294E0,1.279149760E0,8.114199248E0
8.687634167E-1,6.711380916E0,-3.009031554E0,1.196955450E0,7.451819043E0
8.787234167E-1,5.909458094E0,-3.652448055E0,1.118554813E0,7.036564263E0
8.886834167E-1,5.461690013E0,-4.179507887E0,1.447882716E0,7.028136904E0
8.986434167E-1,5.075601287E0,-4.703334210E0,1.861917624E0,7.165878757E0
9.086034167E-1,4.669847498E0,-5.204294996E0,2.054393346E0,7.287845640E0
9.185634167E-1,4.476661048E0,-5.554312833E0,1.983584880E0,7.404423959E0
9.285234167E-1,4.114909895E0,-5.931016193E0,1.561929880E0,7.385733645E0
9.384834167E-1,3.504508821E0,-6.291813372E0,8.104493055E-1,7.247435799E0
9.484434167E-1,2.851423072E0,-6.542874686E0,-1.521282156E-1,7.138835037E0
9.584044167E-1,2.342952415E0,-6.661694786E0,-1.137077622E0,7.152660271E0
9.683644167E-1,1.763437795E0,-6.672546049E0,-1.912856959E0,7.161815788E0
9.783244167E-1,1.125473092E0,-6.538437819E0,-2.499090614E0,7.089662382E0
9.882844167E-1,6.801356263E-1,-6.455489802E0,-2.910987196E0,7.114055068E0
9.982444167E-1,2.620985180E-1,-6.348979846E0,-3.206539389E0,7.117593383E0
1.008204417E0,-9.686548613E-2,-6.117896714E0,-3.080826591E0,6.850513529E0
1.018164417E0,-2.812178899E-1,-5.880077004E0,-2.333658850E0,6.332483929E0
1.028124417E0,-4.358051886E-1,-5.641082005E0,-1.283419397E0,5.801628883E0
1.038085417E0,-5.227814982E-1,-5.432537550E0,-2.605354842E-1,5.463848778E0
1.048045417E0,-8.712194909E-1,-5.258028569E0,4.296744927E-1,5.347009257E0
1.058005417E0,-1.432921738E0,-5.100973526E0,6.572527671E-1,5.339023957E0
1.067965417E0,-2.114949888E0,-4.774260351E0,5.557743760E-1,5.251234149E0
1.077925417E0,-2.790524906E0,-4.306445092E0,2.234525156E-1,5.136382930E0
1.087885417E0,-3.329928795E0,-3.839389971E0,-7.552146792E-2,5.082818571E0
1.097845417E0,-3.515672325E0,-3.482297587E0,-2.488025343E-1,4.954619166E0
1.107805417E0,-3.233495053E0,-3.022621652E0,-2.108026493E-1,4.431271789E0
1.117765417E0,-2.827144555E0,-2.534599586E0,1.799083006E-1,3.801224591E0
1.127726417E0,-2.297251747E0,-2.026750780E0,6.989026304E-1,3.142220425E0
1.137686417E0,-1.699350850E0,-1.540971705E0,1.005756176E0,2.504781945E0
1.147646417E0,-1.221165554E0,-1.048881145E0,1.047657323E0,1.920672495E0
1.157606417E0,-1.136957243E0,-7.420455801E-1,1.052703397E0,1.717989481E0
1.167566417E0,-1.329987353E0,-6.371132022E-1,9.641123056E-1,1.761900148E0
1.177526417E0,-1.625355359E0,-5.917522573E-1,7.029509501E-1,1.867107607E0
1.187486417E0,-1.846685481E0,-5.171838856E-1,3.383736555E-1,1.947363132E0
1.197446417E0,-2.056886891E0,-3.445150226E-1,-1.771585744E-2,2.085614570E0
1.207406417E0,-2.238732666E0,-2.138151348E-1,-1.358904612E-1,2.253021766E0
1.217367417E0,-2.239241228E0,-1.904958540E-1,-1.861227214E-1,2.255023639E0
1.227327417E0,-2.112624743E0,-5.548130572E-2,-2.259211735E-1,2.125394518E0
1.237287417E0,-1.871845466E0,1.916243666E-1,-9.723210655E-2,1.884138909E0
1.247247417E0,-1.452859135E0,3.529578173E-1,1.769811845E-1,1.505556783E0
1.257207417E0,-9.350292782E-1,4.898592621E-1,4.275811164E-1,1.138888695E0
1.267167417E0,-6.419826903E-1,5.787275845E-1,5.650386679E-1,1.032635506E0
1.277127417E0,-5.579429255E-1,6.153983974E-1,6.269864094E-1,1.040734093E0
1.287087417E0,-6.564679977E-1,5.596773559E-1,5.355465182E-1,1.015381233E0
1.297047417E0,-9.709806644E-1,4.602173871E-1,2.227157664E-1,1.097363115E0
1.307008417E0,-1.180736004E0,4.491714120E-1,-2.130538638E-1,1.281126230E0
1.316968417E0,-1.233183044E0,3.456827116E-1,-5.315610560E-1,1.386648518E0
1.326928417E0,-1.004451735E0,2.341312855E-1,-7.113640702E-1,1.252908451E0
1.336888417E0,-7.192048940E-1,2.700764591E-1,-7.208809984E-1,1.053501964E0
1.346848417E0,-5.606612230E-1,2.216544968E-1,-5.013461538E-1,7.841043865E-1
1.356808417E0,-3.703502141E-1,1.977019626E-1,-3.390274473E-1,5.396155642E-1
1.366768417E0,-3.612566974E-2,2.355930895E-1,-2.595766139E-1,3.524048613E-1
1.376728417E0,2.486812412E-1,1.997180825E-1,-1.528976544E-1,3.537051949E-1
1.386689417E0,3.193440018E-1,1.374294484E-1,1.031671035E-1,3.626443106E-1
1.396649417E0,3.946014314E-1,1.223869014E-1,3.737364829E-1,5.571066342E-1
1.406609417E0,4.033576368E-1,7.965837300E-2,4.520037667E-1,6.110239314E-1
1.416569417E0,3.559603626E-1,-2.236676931E-2,3.061671917E-1,4.700493605E-1
1.426529417E0,3.096739496E-1,-1.461043775E-2,7.184937995E-2,3.182353742E-1
1.436489417E0,1.842626125E-1,-4.283611715E-2,-4.607843477E-2,1.947071274E-1
1.446449417E0,6.015133068E-2,-2.552309632E-3,2.277139664E-2,6.436795299E-2
1.456409417E0,4.095389843E-2,-3.712981939E-4,2.625961161E-1,2.657707279E-1
1.466369417E0,2.320186500E-1,-4.940429449E-2,4.648968772E-1,5.219219719E-1
1.476330417E0,3.848422092E-1,-5.977316201E-2,6.648073697E-1,7.704837413E-1
1.486290417E0,4.317168155E-1,-8.199725926E-2,8.538876128E-1,9.603265146E-1
1.496250417E0,4.038157296E-1,-5.798976123E-2,8.742908871E-1,9.647872881E-1
1.506210417E0,3.168325861E-1,2.896710634E-2,6.256836498E-1,7.019273541E-1
1.516170667E0,1.593132377E-1,1.125308347E-1,1.774197622E-1,2.636696199E-1
1.526130667E0,-3.136172388E-2,2.073446059E-1,-2.897774827E-1,3.576958664E-1
1.536090667E0,-2.054475864E-1,2.601818007E-1,-6.007791889E-1,6.861770282E-1
1.546050667E0,-2.683608129E-1,2.313602901E-1,-7.169762278E-1,7.997499740E-1
1.556010667E0,-1.728744291E-1,1.769420081E-1,-6.913817954E-1,7.343043167E-1
1.565970667E0,-5.115023654E-2,1.407775640E-1,-4.781373854E-1,5.010489283E-1
1.575931667E0,1.992414614E-1,9.856476009E-2,-1.331879147E-1,2.591354713E-1
1.585891667E0,5.585837804E-1,8.639611959E-2,2.452742879E-1,6.161490124E-1
1.595851667E0,8.514313437E-1,9.679246902E-2,4.963128706E-1,9.902679337E-1
1.605811667E0,9.324497791E-1,1.258554697E-1,6.704358995E-1,1.155329600E0
1.615771667E0,9.066327140E-1,9.440972865E-2,6.723502048E-1,1.132674213E0
1.625731667E0,8.182899101E-1,2.353211939E-2,4.602753111E-1,9.391514785E-1
1.635691667E0,6.821833943E-1,-2.128854275E-2,2.838729644E-1,7.391963510E-1
1.645651667E0,5.151140443E-1,-9.793969274E-2,2.403661716E-1,5.768106782E-1
1.655611667E0,3.499455511E-1,-8.974949777E-2,2.006133278E-1,4.132342778E-1
1.665572667E0,3.343519771E-1,-1.106082702E-1,1.427983983E-1,3.800221264E-1
1.675532667E0,4.909817082E-1,-7.705519259E-2,-6.399265900E-3,4.970326862E-1
1.685492667E0,5.317747717E-1,-9.263743758E-3,-2.964070559E-2,5.326807639E-1
1.695452667E0,3.392697413E-1,-9.941377580E-2,1.821045148E-1,3.976796581E-1
1.705412667E0,1.644047007E-1,-2.207733214E-1,3.405325206E-1,4.378723132E-1
1.715372667E0,1.909788706E-1,-2.614108855E-1,2.653478158E-1,4.185905438E-1
1.725332667E0,4.638333052E-1,-1.789359087E-1,2.599313937E-2,4.978303303E-1
1.735292667E0,7.746555018E-1,-1.478141034E-1,-1.534204137E-1,8.034164419E-1
1.745252667E0,9.837767842E-1,-1.239609718E-1,-2.872139903E-1,1.032315339E0
1.755213667E0,1.122964052E0,-1.268851644E-1,-3.240666517E-1,1.175656115E0
1.765173667E0,1.422195167E0,-1.559060651E-1,-3.877170293E-1,1.482319226E0
1.775133667E0,1.713191794E0,-1.150702804E-1,-5.252365979E-1,1.795589256E0
1.785093667E0,1.918391641E0,-1.477509534E-1,-6.110644412E-1,2.018776011E0
1.795053667E0,2.035299117E0,-2.401048011E-1,-5.983595379E-1,2.134977037E0
1.805013667E0,1.879950437E0,-3.973452008E-1,-5.135586850E-1,1.988929204E0
1.814973667E0,1.542812847E0,-6.058779609E-1,-4.686087263E-1,1.722484752E0
1.824933667E0,1.454199609E0,-7.834666711E-1,-4.983218642E-1,1.725352488E0
1.834893667E0,1.630566105E0,-9.422402108E-1,-4.351684999E-1,1.932856451E0
1.844853667E0,1.936367298E0,-1.159412232E0,-3.377737677E-1,2.282070585E0
1.854814667E0,2.181570140E0,-1.399055103E0,-3.317604911E-1,2.612789406E0
1.864774667E0,2.340036847E0,-1.631692425E0,-3.962272862E-1,2.880136920E0
1.874734667E0,2.452087479E0,-1.914272570E0,-5.500942811E-1,3.159078377E0
1.884694667E0,2.580158459E0,-2.234761384E0,-8.276557609E-1,3.512319771E0
1.894654667E0,2.725044569E0,-2.539931077E0,-1.150162522E0,3.898716661E0
1.904614667E0,2.870872665E0,-2.903583452E0,-1.417777741E0,4.322360518E0
1.914574667E0,2.995019871E0,-3.236380654E0,-1.667789480E0,4.714427379E0
1.924534667E0,2.963805387E0,-3.546004171E0,-1.778728849E0,4.951985892E0
1.934494667E0,2.564926754E0,-3.981848609E0,-1.682514085E0,5.026412364E0
1.944455667E0,1.912313314E0,-4.487654983E0,-1.440780834E0,5.086436756E0
1.954415667E0,1.340380487E0,-4.968956260E0,-1.220488154E0,5.289304065E0
1.964375667E0,8.789785268E-1,-5.479463795E0,-9.956276286E-1,5.638120352E0
1.974335667E0,4.410629684E-1,-6.072949752E0,-7.898910069E-1,6.139966045E0
1.984295667E0,2.837810900E-1,-6.587511746E0,-6.436462963E-1,6.624962133E0
1.994255667E0,2.445830556E-1,-7.122398661E0,-6.333885258E-1,7.154688294E0
2.004215667E0,-1.132331035E-1,-7.565227014E0,-6.949491817E-1,7.597923129E0
2.014175667E0,-6.548337009E-1,-7.672971902E0,-8.677642250E-1,7.749601263E0
2.024135667E0,-1.171987839E0,-7.593649744E0,-1.075197124E0,7.758422571E0
2.034095667E0,-1.948110407E0,-7.432385291E0,-1.324642852E0,7.796804727E0
2.044056667E0,-2.961002817E0,-7.235614205E0,-1.518192122E0,7.964079226E0
2.054016667E0,-3.817532494E0,-7.200495828E0,-1.729687082E0,8.331417161E0
2.063976667E0,-4.299408553E0,-7.426124092E0,-1.769201980E0,8.761410194E0
2.073936667E0,-4.909990599E0,-7.633104417E0,-1.895989350E0,9.271842661E0
2.083896667E0,-5.453237278E0,-7.777297339E0,-1.495373363E0,9.615627500E0
2.093856667E0,-5.946711874E0,-7.447091623E0,-5.988610098E-1,9.548884242E0
2.103816667E0,-6.778720960E0,-6.498355156E0,5.355505747E-1,9.405662762E0
2.113776667E0,-7.712965103E0,-5.578047266E0,1.777282832E0,9.683138760E0
2.123736667E0,-8.353115349E0,-4.847865102E0,2.573627996E0,9.994993404E0
2.133697667E0,-8.673229941E0,-3.999992520E0,3.124196852E0,1.004915239E1
2.143657667E0,-9.084465203E0,-3.090396144E0,3.747559449E0,1.030156581E1
2.153617667E0,-9.546502828E0,-2.221405174E0,4.637367092E0,1.084322511E1
2.163577667E0,-1.017789044E1,-8.423200661E-1,6.053268024E0,1.187185793E1
2.173537667E0,-1.068514809E1,9.215264493E-1,7.758793241E0,1.323708704E1
2.183497667E0,-1.075505038E1,1.976699783E0,9.261242319E0,1.433000558E1
2.193457667E0,-1.011232444E1,2.989435195E0,1.011335472E1,1.461081011E1
2.203417667E0,-8.775200704E0,4.170237712E0,1.037564327E1,1.421439423E1
2.213377667E0,-7.234352961E0,5.125483884E0,1.045639683E1,1.370921888E1
2.223337667E0,-5.804012330E0,6.350241090E0,1.061644331E1,1.366458889E1
2.233298667E0,-4.418586794E0,7.614250070E0,1.104370871E1,1.412318007E1
2.243258667E0,-2.865651979E0,8.638323233E0,1.176063582E1,1.487094968E1
2.253218667E0,-1.402656988E0,9.725448092E0,1.253411720E1,1.592657782E1
2.263178667E0,-3.205735981E-1,1.045825858E1,1.341100776E1,1.700979333E1
2.273138667E0,5.719088539E-1,1.075703844E1,1.427785982E1,1.788569922E1
2.283098667E0,1.633884546E0,1.100113162E1,1.475699003E1,1.847872372E1
2.293058667E0,2.550094999E0,1.095360195E1,1.470099943E1,1.850955873E1
2.303018667E0,3.576282223E0,1.079573297E1,1.389792880E1,1.795800851E1
2.312978667E0,5.059510919E0,1.046291179E1,1.252946282E1,1.708972242E1
2.322938667E0,6.765636646E0,9.829939005E0,1.115242716E1,1.633334539E1
2.332899667E0,8.734667805E0,9.135907252E0,9.634653697E0,1.589294733E1
2.342859667E0,1.060785842E1,8.372912852E0,7.926203118E0,1.566706819E1
2.352819667E0,1.203030941E1,7.627614466E0,6.192421816E0,1.553238342E1
2.362779667E0,1.270937696E1,6.861596471E0,4.500155745E0,1.512815821E1
2.372739667E0,1.254938545E1,6.075007972E0,3.013854045E0,1.426450536E1
2.382699667E0,1.172725640E1,5.121206061E0,1.913296085E0,1.293893335E1
2.392659667E0,1.062584680E1,4.069760327E0,1.048444066E0,1.142675826E1
2.402619667E0,9.670934501E0,3.104503722E0,-9.479593724E-2,1.015745557E1
2.412579667E0,9.036442605E0,2.298135846E0,-9.540135795E-1,9.372772548E0
2.422540667E0,8.842817906E0,1.577720870E0,-7.261785758E-1,9.011768250E0
2.432500667E0,8.798152195E0,7.978747952E-1,5.204945791E-1,8.849576309E0
2.442460667E0,9.105362567E0,-1.229002869E-1,2.208872836E0,9.370264199E0
2.452420667E0,9.621536053E0,-9.796951354E-1,3.459875270E0,1.027153813E1
2.462380667E0,9.898585317E0,-1.856231938E0,4.037864351E0,1.085043487E1
2.472340667E0,1.004350388E1,-2.624944915E0,3.979964637E0,1.111766273E1
2.482300667E0,1.001737501E1,-3.171293542E0,3.424414830E0,1.105131312E1
2.492260667E0,9.542824345E0,-3.749779052E0,2.650896027E0,1.059025916E1
2.502220667E0,8.907956473E0,-4.278024700E0,1.620941588E0,1.001402194E1
2.512181042E0,8.281778734E0,-4.841944796E0,3.625249585E-1,9.600193370E0
2.522142042E0,7.557327425E0,-5.286995675E0,-8.501734614E-1,9.262198227E0
2.532102042E0,6.752791482E0,-5.649120172E0,-1.731664610E0,8.972815269E0
2.542062042E0,5.675203432E0,-6.021404207E0,-2.396347434E0,8.614390497E0
2.552022042E0,4.513378054E0,-6.435147339E0,-2.851237423E0,8.361295209E0
2.561982042E0,3.507628310E0,-6.655041824E0,-2.553153970E0,7.944283054E0
2.571942042E0,3.479058815E0,-6.781772037E0,-1.035620829E0,7.692125370E0
2.581902042E0,3.780924246E0,-6.869712991E0,8.802649873E-1,7.890704099E0
2.591862042E0,3.799957810E0,-7.033946076E0,2.450026628E0,8.361740682E0
2.601822042E0,3.378248724E0,-7.195428046E0,3.215437682E0,8.574717995E0
2.611782042E0,2.567948595E0,-7.301560857E0,3.055280106E0,8.321171039E0
2.621743042E0,1.587365268E0,-7.103813286E0,1.886225231E0,7.519424002E0
2.631703042E0,7.038551489E-1,-6.974602684E0,2.639012146E-1,7.014993837E0
2.641663042E0,-5.643893346E-2,-6.738395637E0,-1.416183937E0,6.885836047E0
2.651623042E0,-6.079438553E-1,-6.536267917E0,-2.711466165E0,7.102425134E0
2.661583042E0,-1.025388568E0,-6.333781178E0,-3.467567282E0,7.293300253E0
2.671543042E0,-1.659381622E0,-6.057814819E0,-3.565114042E0,7.222236902E0
2.681503042E0,-2.516405097E0,-5.689282358E0,-3.108210272E0,6.954221700E0
2.691463042E0,-3.232371511E0,-5.456600597E0,-1.992460953E0,6.647752726E0
