"Time (s)","Linear Acceleration x (m/s^2)","Linear Acceleration y (m/s^2)","Linear Acceleration z (m/s^2)","Absolute acceleration (m/s^2)"
1.908499980E-3,9.629457861E-2,4.311198878E-1,9.823790073E-2,4.525347376E-1
1.186850003E-2,-2.072340935E-2,5.300851822E-1,1.896819216E-1,5.633817458E-1
2.182849997E-2,1.149018806E-1,7.328119496E-1,5.593885034E-1,9.290485958E-1
3.178950003E-2,5.397126228E-1,1.205710778E0,1.072427883E0,1.701508084E0
4.174949997E-2,1.082660218E0,1.709434665E0,1.883372959E0,2.764310714E0
5.170950003E-2,1.541059705E0,2.072507581E0,2.809452635E0,3.816173057E0
6.166949996E-2,1.676180965E0,2.208065920E0,3.211891930E0,4.242804203E0
7.162950002E-2,1.430432139E0,2.038626767E0,3.124770756E0,3.995788718E0
8.158949995E-2,9.222681686E-1,1.688081511E0,2.952173814E0,3.523567509E0
9.155050002E-2,3.372589204E-1,1.188609719E0,2.761511899E0,3.025307358E0
1.015105000E-1,-2.647016984E-1,4.998275954E-1,2.423073887E0,2.488208528E0
1.114705000E-1,-9.373604169E-1,-3.150333613E-1,1.805734799E0,2.058778457E0
1.214304999E-1,-1.424092296E0,-1.103217858E0,6.982300544E-1,1.932007691E0
1.313915000E-1,-1.575446596E0,-1.629735654E0,-2.405181992E-1,2.279455918E0
1.413514999E-1,-1.362196887E0,-2.028126630E0,-1.099481780E0,2.679130114E0
1.513115000E-1,-6.089723074E-1,-2.108974911E0,-2.262626290E0,3.152475245E0
1.612715001E-1,-1.793782505E-1,-2.281261951E0,-3.322362206E0,4.034157071E0
1.712315000E-1,-4.444983172E-1,-2.773674400E0,-4.594718086E0,5.385376748E0
1.811915000E-1,-7.821490011E-1,-3.242862000E0,-6.172547715E0,7.016285078E0
1.911525000E-1,-8.193343690E-1,-3.443339928E0,-7.704244566E0,8.478400970E0
2.011125000E-1,-3.783437964E-1,-3.469022654E0,-8.748233346E0,9.418537512E0
2.110725000E-1,4.240698999E-1,-3.364272124E0,-9.160671964E0,9.768115122E0
2.210325000E-1,1.843475214E0,-3.123270653E0,-8.630390316E0,9.361455946E0
2.309935000E-1,3.078674524E0,-2.978256781E0,-6.853272960E0,8.081806762E0
2.409535000E-1,3.932495770E0,-3.066943255E0,-5.189337233E0,7.197213685E0
2.509135000E-1,4.698488622E0,-2.964165576E0,-4.012011471E0,6.852613293E0
2.608735000E-1,5.475230995E0,-2.627521783E0,-3.382673312E0,6.951582835E0
2.708335000E-1,6.418458216E0,-2.230486777E0,-3.034752286E0,7.441867949E0
2.807945000E-1,7.433546548E0,-1.554387118E0,-2.560899192E0,8.014483032E0
2.907545000E-1,8.753369540E0,-8.780681884E-1,-1.897954745E0,8.999706343E0
3.007145000E-1,1.011957732E1,-1.872857326E-1,-8.700499016E-1,1.015863711E1
3.106745000E-1,1.124167204E1,6.555126357E-1,-8.695511341E-2,1.126110333E1
3.206345000E-1,1.184275178E1,1.385951054E0,4.692788172E-1,1.193280573E1
3.305955000E-1,1.219839230E1,1.991260520E0,1.078628855E0,1.240682608E1
3.405555000E-1,1.216253132E1,2.501052940E0,2.062998254E0,1.258723146E1
3.505154999E-1,1.195140240E1,2.987294822E0,3.354710172E0,1.276769478E1
3.604755000E-1,1.181253921E1,3.144139950E0,5.078971038E0,1.323698023E1
3.704355001E-1,1.155437412E1,3.120822716E0,7.027973145E0,1.387931923E1
3.803965000E-1,1.110814619E1,2.871491593E0,8.729596515E0,1.441673441E1
3.903565001E-1,1.041028451E1,2.272201982E0,1.020832636E1,1.475624792E1
4.003165000E-1,9.374249117E0,1.437693358E0,1.132345588E1,1.477038123E1
4.102765000E-1,7.829914094E0,1.281404154E-1,1.253450195E1,1.477963849E1
4.202365000E-1,5.819173576E0,-1.879992537E0,1.414464621E1,1.541000226E1
4.301975000E-1,3.575582896E0,-4.364079927E0,1.572011298E1,1.670185435E1
4.401575000E-1,9.203757173E-1,-7.156842270E0,1.727448767E1,1.872098841E1
4.501175000E-1,-1.930283416E0,-9.996572957E0,1.855093251E1,2.116115692E1
4.600775000E-1,-4.628054817E0,-1.278744080E1,1.915230344E1,2.348932227E1
4.700375000E-1,-7.678234397E0,-1.550335670E1,1.881274627E1,2.555834061E1
4.799985000E-1,-1.094188763E1,-1.774531834E1,1.790505609E1,2.748112555E1
4.899585000E-1,-1.369958305E1,-1.914739763E1,1.705233324E1,2.907031958E1
4.999185000E-1,-1.588511556E1,-2.005247878E1,1.592379723E1,3.013313989E1
5.098785000E-1,-1.762690053E1,-2.042156907E1,1.415012272E1,3.046266696E1
5.198395000E-1,-1.855472736E1,-2.029868398E1,1.180941212E1,2.992952879E1
5.297995000E-1,-1.868030216E1,-1.993124963E1,8.339879007E0,2.856154727E1
5.397595000E-1,-1.780033129E1,-1.906344096E1,4.489615554E0,2.646551007E1
5.497195000E-1,-1.645365788E1,-1.826437217E1,9.285074401E-1,2.460024948E1
5.596794999E-1,-1.497315574E1,-1.734760711E1,-2.908180532E0,2.309961859E1
5.696405000E-1,-1.394673317E1,-1.641801559E1,-6.779255396E0,2.258364244E1
5.796004999E-1,-1.321409576E1,-1.542757678E1,-1.040707322E1,2.282388278E1
5.895605000E-1,-1.227614155E1,-1.421311594E1,-1.311696064E1,2.290788014E1
5.995205001E-1,-1.071679439E1,-1.283385015E1,-1.500748357E1,2.246735309E1
6.094805000E-1,-8.310435938E0,-1.163722332E1,-1.669066073E1,2.197877312E1
6.194415001E-1,-5.414942109E0,-1.014583132E1,-1.807263144E1,2.142147284E1
6.294015000E-1,-2.104248899E0,-8.251570264E0,-1.906851167E1,2.088359195E1
6.393615000E-1,1.523818605E0,-6.357205124E0,-1.994717510E1,2.099109037E1
6.493215000E-1,5.023655208E0,-4.061461959E0,-2.024044805E1,2.124637198E1
6.592825000E-1,8.241490248E0,-1.757599935E0,-1.991843721E1,2.162765498E1
6.692425000E-1,1.092149255E1,2.408549988E-1,-1.913371163E1,2.203261063E1
6.792025000E-1,1.334287133E1,1.905485374E0,-1.743192980E1,2.203486479E1
6.891625000E-1,1.557981372E1,3.438687884E0,-1.490798384E1,2.183582268E1
6.991223750E-1,1.773070732E1,4.687420135E0,-1.200864664E1,2.192162138E1
7.090833751E-1,1.985237303E1,6.005195140E0,-8.420312136E0,2.238483281E1
7.190433750E-1,2.172890357E1,7.313179275E0,-4.254634668E0,2.331801359E1
7.290033750E-1,2.342131466E1,8.088467445E0,2.270064533E-2,2.477865616E1
7.389633750E-1,2.417067978E1,8.544763105E0,5.153705471E0,2.614948217E1
7.489243750E-1,2.344256578E1,8.490189872E0,1.040341871E1,2.701607550E1
7.588843750E-1,2.118636148E1,7.442951210E0,1.419603505E1,2.656664915E1
7.688443750E-1,1.828932341E1,6.328566631E0,1.609504464E1,2.517142364E1
7.788043750E-1,1.552790799E1,4.970744923E0,1.680505566E1,2.341440000E1
7.887643750E-1,1.225266966E1,2.967946385E0,1.737091294E1,2.146357929E1
7.987253750E-1,8.912662897E0,5.196215898E-1,1.804546879E1,2.013316940E1
8.086853750E-1,5.414271433E0,-2.127956727E0,1.938545882E1,2.023952936E1
8.186453750E-1,1.619210958E0,-5.088044162E0,2.110041677E1,2.176551459E1
8.286053750E-1,-2.232644691E0,-8.145015868E0,2.229834286E1,2.384412045E1
8.385653750E-1,-5.709095063E0,-1.081087960E1,2.236715757E1,2.549036331E1
8.485263750E-1,-8.479276044E0,-1.276864083E1,2.128476779E1,2.622932806E1
8.584863750E-1,-1.053407475E1,-1.421957243E1,1.903935044E1,2.599345756E1
8.684463750E-1,-1.179105070E1,-1.511477881E1,1.608243687E1,2.502259360E1
8.784063749E-1,-1.263181950E1,-1.569250945E1,1.303860561E1,2.399631123E1
8.883673750E-1,-1.322438569E1,-1.615105862E1,1.007659444E1,2.317927581E1
8.983273749E-1,-1.346821926E1,-1.664849178E1,6.687390960E0,2.243404570E1
9.082873750E-1,-1.330442588E1,-1.723912371E1,3.070101628E0,2.199137691E1
9.182473751E-1,-1.340153995E1,-1.762818809E1,-3.390560621E-1,2.214654030E1
9.282073750E-1,-1.347508973E1,-1.774562006E1,-3.604157070E0,2.257155340E1
9.381683751E-1,-1.324945153E1,-1.744943637E1,-6.578308813E0,2.287585938E1
9.481283750E-1,-1.233603458E1,-1.688767799E1,-9.128205299E0,2.281875433E1
9.580883750E-1,-1.106283261E1,-1.586242719E1,-1.096720374E1,2.223246320E1
9.680483750E-1,-9.538724277E0,-1.462384074E1,-1.291762555E1,2.171886343E1
9.780083750E-1,-7.069061530E0,-1.294860293E1,-1.560667115E1,2.147571031E1
9.879693750E-1,-3.559214493E0,-1.062030481E1,-1.897926211E1,2.203795073E1
9.979293750E-1,1.992959136E-1,-7.745751611E0,-2.217053208E1,2.348550360E1
1.007889375E0,3.392606562E0,-5.146718633E0,-2.363754937E1,2.442810333E1
1.017849375E0,6.233253508E0,-2.756549951E0,-2.333894376E1,2.431374740E1
1.027810375E0,9.139526678E0,-4.533603573E-1,-2.203507782E1,2.385961312E1
1.037770375E0,1.219715035E1,1.487786601E0,-2.025342185E1,2.368934534E1
1.047730375E0,1.568135062E1,3.596666202E0,-1.837376656E1,2.442204051E1
1.057690375E0,1.887277963E1,5.496283311E0,-1.576440681E1,2.519737017E1
1.067650375E0,2.135608510E1,6.670151614E0,-1.260134147E1,2.567814441E1
1.077611375E0,2.300546302E1,7.236594198E0,-8.097891403E0,2.544003674E1
1.087571375E0,2.414479767E1,7.379071548E0,-2.524891453E0,2.537315566E1
1.097531375E0,2.446724588E1,7.389837441E0,3.198221140E0,2.575819165E1
1.107491375E0,2.344834283E1,7.199211779E0,8.385077984E0,2.592224844E1
1.117452375E0,2.126857334E1,6.618853991E0,1.221025630E1,2.540180700E1
1.127412375E0,1.851268471E1,5.751293249E0,1.484210210E1,2.441484925E1
1.137372375E0,1.584259461E1,4.694754590E0,1.662514853E1,2.343979710E1
1.147332375E0,1.328016695E1,3.025437379E0,1.802834580E1,2.259507375E1
1.157292375E0,1.032656057E1,6.276924607E-1,1.934651403E1,2.193899396E1
1.167253375E0,6.722056178E0,-2.363337563E0,2.070142382E1,2.189338603E1
1.177213375E0,2.758827442E0,-5.583673457E0,2.228059305E1,2.313467883E1
1.187173375E0,-1.475865297E0,-8.703732526E0,2.334753449E1,2.496077933E1
1.197133375E0,-5.558780690E0,-1.127316514E1,2.337765934E1,2.654240478E1
1.207094375E0,-8.950212547E0,-1.306686053E1,2.219359116E1,2.726544768E1
1.217054375E0,-1.146180217E1,-1.426380077E1,1.990171651E1,2.703529622E1
1.227014375E0,-1.273644723E1,-1.501746009E1,1.695343694E1,2.598384537E1
1.236974375E0,-1.301342984E1,-1.536300013E1,1.361409559E1,2.430462359E1
1.246934375E0,-1.284095803E1,-1.565746591E1,9.815926738E0,2.250330775E1
1.256895375E0,-1.267865803E1,-1.598372651E1,5.852342491E0,2.122446219E1
1.266855375E0,-1.272908208E1,-1.638407251E1,2.105539672E0,2.085427198E1
1.276815375E0,-1.259708470E1,-1.648727001E1,-1.639965650E0,2.081360379E1
1.286775375E0,-1.265776944E1,-1.624426909E1,-4.858735076E0,2.115898655E1
1.296735375E0,-1.231487819E1,-1.578021066E1,-7.542751486E0,2.139075439E1
1.306696375E0,-1.132281151E1,-1.490654192E1,-1.023263792E1,2.133349318E1
1.316656375E0,-9.662619760E0,-1.370884855E1,-1.276888759E1,2.107945064E1
1.326616375E0,-7.426693611E0,-1.208950662E1,-1.521093744E1,2.080107127E1
1.336576375E0,-4.940886701E0,-1.020704933E1,-1.757570582E1,2.091654017E1
1.346537375E0,-2.523382872E0,-7.970432042E0,-1.977310817E1,2.146790756E1
1.356497375E0,1.109129101E-2,-5.626147631E0,-2.123648849E1,2.196911705E1
1.366457375E0,2.845849506E0,-3.199695808E0,-2.185621383E1,2.227175332E1
1.376417375E0,5.944517999E0,-1.050724187E0,-2.192152489E1,2.273751458E1
1.386377375E0,9.282413918E0,9.350890660E-1,-2.108327741E1,2.305519868E1
1.396338375E0,1.214021601E1,2.775554572E0,-1.933502893E1,2.299851934E1
1.406298375E0,1.434099338E1,4.101679108E0,-1.693960360E1,2.257073399E1
1.416258375E0,1.645910047E1,5.129934785E0,-1.385884133E1,2.211980339E1
1.426218375E0,1.885529880E1,6.126754076E0,-1.022545520E1,2.230738313E1
1.436179375E0,2.139725418E1,6.827285594E0,-6.531687793E0,2.339053784E1
1.446139375E0,2.248422584E1,7.022814732E0,-2.020977824E0,2.364201112E1
1.456099375E0,2.193613358E1,7.024157252E0,3.077593666E0,2.323799312E1
1.466059375E0,2.071490516E1,7.017129484E0,7.447283412E0,2.310431631E1
1.476019375E0,1.954868268E1,6.900534250E0,1.118072534E1,2.355370431E1
1.485980375E0,1.819757358E1,6.545832793E0,1.430486109E1,2.405470145E1
1.495940375E0,1.631132145E1,5.715049868E0,1.656634308E1,2.394085891E1
1.505900375E0,1.419129530E1,4.284591708E0,1.833844820E1,2.358069700E1
1.515860375E0,1.164343891E1,2.237427129E0,1.976963259E1,2.305242118E1
1.525820375E0,8.511962564E0,-4.510811126E-1,2.081854823E1,2.249597589E1
1.535781375E0,4.547281964E0,-3.542010523E0,2.163463243E1,2.238930396E1
1.545741375E0,3.515807980E-1,-6.596143990E0,2.192464029E1,2.289809111E1
1.555701375E0,-3.465802884E0,-9.249349083E0,2.172802883E1,2.386774989E1
1.565661375E0,-6.408032631E0,-1.135079044E1,2.105013072E1,2.475906559E1
1.575621375E0,-8.558785897E0,-1.290208716E1,1.966429383E1,2.502800673E1
1.585582375E0,-1.014998285E1,-1.412239639E1,1.737884644E1,2.458634855E1
1.595542375E0,-1.103940282E1,-1.504410235E1,1.452745173E1,2.364826175E1
1.605502375E0,-1.135558867E1,-1.579311313E1,1.108662025E1,2.238939403E1
1.615462375E0,-1.126591694E1,-1.626908467E1,7.305939837E0,2.109456701E1
1.625423375E0,-1.099578844E1,-1.642857800E1,3.615221756E0,2.009665064E1
1.635383375E0,-1.086583758E1,-1.640907637E1,2.449650067E-1,1.968207869E1
1.645343375E0,-1.071096355E1,-1.611868961E1,-2.580265170E0,1.952420710E1
1.655303375E0,-1.010650178E1,-1.545800102E1,-5.287893807E0,1.921075206E1
1.665263375E0,-9.018864706E0,-1.424793845E1,-8.540468910E0,1.890193852E1
1.675224375E0,-7.869210892E0,-1.279870605E1,-1.223058707E1,1.937314163E1
1.685184375E0,-6.402282479E0,-1.087929670E1,-1.577735956E1,2.020577621E1
1.695144292E0,-5.007471285E0,-8.516984738E0,-1.861258555E1,2.107230739E1
1.705104292E0,-4.139456507E0,-6.389641383E0,-2.040093073E1,2.177522886E1
1.715064292E0,-3.074328580E0,-4.727101387E0,-2.141337846E1,2.214339091E1
1.725025292E0,-1.463889323E0,-2.908086392E0,-2.217010172E1,2.240788586E1
1.734985292E0,7.434816563E-1,-1.376187227E0,-2.281990514E1,2.287345026E1
1.744945292E0,3.803119107E0,3.058128870E-1,-2.371814271E1,2.402306246E1
1.754905292E0,7.028742054E0,2.067654392E0,-2.392339168E1,2.502013347E1
1.764866292E0,1.050467963E1,3.788026274E0,-2.270444602E1,2.530196249E1
1.774826292E0,1.449330165E1,5.517687628E0,-2.027724575E1,2.552777634E1
1.784786292E0,1.793249356E1,6.723213342E0,-1.568498408E1,2.475468943E1
1.794746292E0,2.028565639E1,7.253983818E0,-9.887578518E0,2.370426850E1
1.804706292E0,2.169683744E1,7.270396952E0,-4.075888209E0,2.324272556E1
1.814667292E0,2.283594990E1,7.029471202E0,1.054964004E0,2.391666829E1
1.824627292E0,2.390745217E1,6.829754874E0,5.500733626E0,2.546507198E1
1.834587292E0,2.424275724E1,6.377057590E0,9.909940610E0,2.695524188E1
1.844547292E0,2.318044446E1,5.303728652E0,1.421213828E1,2.770284132E1
1.854507292E0,2.113448967E1,3.675480237E0,1.804951272E1,2.803499095E1
1.864468292E0,1.802798093E1,1.387674083E0,2.130246848E1,2.794152643E1
1.874428292E0,1.401641443E1,-1.389943972E0,2.333571142E1,2.725705863E1
1.884388292E0,9.274245358E0,-4.601358769E0,2.442277196E1,2.652651352E1
1.894348292E0,3.773288952E0,-8.076798742E0,2.488796708E1,2.643640091E1
1.904308292E0,-2.028567802E0,-1.125069546E1,2.486001739E1,2.736263329E1
1.914269292E0,-7.266683970E0,-1.357309024E1,2.387283899E1,2.840679348E1
1.924229292E0,-1.110881044E1,-1.514843539E1,2.169084990E1,2.869448960E1
1.934189292E0,-1.303519318E1,-1.594486124E1,1.909738873E1,2.808674273E1
1.944149292E0,-1.382320606E1,-1.658419580E1,1.622634620E1,2.700760795E1
1.954109292E0,-1.420244711E1,-1.708763873E1,1.298469194E1,2.573517294E1
1.964070292E0,-1.447778782E1,-1.736830508E1,9.429954371E0,2.449874284E1
1.974030292E0,-1.464749390E1,-1.751917728E1,5.701583730E0,2.353675226E1
1.983990292E0,-1.424659827E1,-1.729962953E1,1.791509693E0,2.248226526E1
1.993950292E0,-1.300938357E1,-1.657932507E1,-2.166491632E0,2.118517799E1
2.003911292E0,-1.126683027E1,-1.531515588E1,-5.490338446E0,1.978987822E1
2.013871292E0,-9.350628705E0,-1.387315297E1,-8.519235916E0,1.877434449E1
2.023831292E0,-7.073311286E0,-1.209874522E1,-1.188300869E1,1.837436431E1
2.033791292E0,-4.745324820E0,-9.788103932E0,-1.519088149E1,1.868389592E1
2.043751292E0,-2.778561502E0,-7.328301344E0,-1.782977669E1,1.947627638E1
2.053712292E0,-1.417671468E0,-5.191500118E0,-1.942319442E1,2.015494845E1
2.063672292E0,-2.091958344E-1,-3.317007911E0,-2.035607090E1,2.062561336E1
2.073632292E0,1.655445569E0,-1.459289026E0,-2.119437217E1,2.130895202E1
2.083592292E0,4.708047066E0,7.259113580E-1,-2.221170115E1,2.271678504E1
2.093552292E0,8.826427576E0,3.104612480E0,-2.339129505E1,2.519319604E1
2.103513292E0,1.299196588E1,5.484643843E0,-2.406879088E1,2.789586331E1
2.113473292E0,1.671735093E1,7.539948331E0,-2.356173203E1,2.985759299E1
2.123433292E0,1.944893854E1,8.774890217E0,-2.114744242E1,3.004120885E1
2.133393292E0,2.106407048E1,9.136297846E0,-1.668353532E1,2.838146145E1
2.143353292E0,2.208803956E1,9.240874713E0,-1.060101367E1,2.618504818E1
2.153314292E0,2.297586675E1,8.997839288E0,-4.204728683E0,2.503060743E1
2.163274292E0,2.336348336E1,7.859289336E0,2.215907621E0,2.474936423E1
2.173234292E0,2.252796535E1,5.960522413E0,8.343282672E0,2.475171542E1
2.183194292E0,2.031806633E1,3.346161543E0,1.363395625E1,2.469626246E1
2.193155292E0,1.748427876E1,7.679791510E-1,1.760437121E1,2.482345023E1
2.203115292E0,1.464546608E1,-1.455020558E0,2.051170039E1,2.524552662E1
2.213075292E0,1.134463449E1,-3.803523150E0,2.269366609E1,2.565482412E1
2.223035292E0,7.265612175E0,-6.189467218E0,2.454202475E1,2.633267179E1
2.232995292E0,2.528153615E0,-8.723440567E0,2.585170750E1,2.740074373E1
2.242956292E0,-1.904290203E0,-1.098852269E1,2.645626049E1,2.871075880E1
2.252916292E0,-5.852169414E0,-1.286703895E1,2.603243091E1,2.962255960E1
2.262876292E0,-8.810550047E0,-1.419610405E1,2.434726803E1,2.952870845E1
2.272836292E0,-1.026079460E1,-1.486973370E1,2.164372602E1,2.819297363E1
2.282796292E0,-1.067008215E1,-1.522769322E1,1.831384897E1,2.609847425E1
2.292757292E0,-1.088740094E1,-1.549663708E1,1.449490613E1,2.384918371E1
2.302717292E0,-1.103276974E1,-1.558338988E1,1.058234234E1,2.183002560E1
2.312677292E0,-1.121312827E1,-1.565800035E1,6.717857877E0,2.039698103E1
2.322637292E0,-1.152465389E1,-1.557428693E1,3.025073682E0,1.960936336E1
2.332597292E0,-1.155546404E1,-1.547992223E1,-6.074119779E-1,1.932681274E1
2.342558292E0,-1.127600221E1,-1.539249232E1,-4.019746753E0,1.949962589E1
2.352518292E0,-1.076333121E1,-1.516982216E1,-7.245400690E0,1.996167914E1
2.362478292E0,-1.030714431E1,-1.465532098E1,-1.039175820E1,2.071241886E1
2.372438292E0,-9.748306028E0,-1.396282120E1,-1.280800663E1,2.130809424E1
2.382398292E0,-8.722351230E0,-1.281640674E1,-1.461749417E1,2.130752985E1
2.392359292E0,-7.567791018E0,-1.121045843E1,-1.630074851E1,2.118160148E1
2.402319292E0,-6.424051663E0,-9.614470863E0,-1.779124237E1,2.121873688E1
2.412279292E0,-5.319317329E0,-8.188682290E0,-1.855447709E1,2.096707597E1
2.422239292E0,-3.492257150E0,-6.628994232E0,-1.899949231E1,2.042351910E1
2.432200292E0,-9.018365353E-1,-4.792442853E0,-1.990845952E1,2.049701388E1
2.442160292E0,2.150799460E0,-2.797001574E0,-2.146303068E1,2.175111128E1
2.452120292E0,5.731047265E0,-6.265309113E-1,-2.273200979E1,2.345168891E1
2.462080292E0,9.393586444E0,1.488501130E0,-2.289197090E1,2.478905875E1
2.472040292E0,1.270905420E1,3.226968976E0,-2.152581574E1,2.520504177E1
2.482001292E0,1.583535692E1,4.573828323E0,-1.910551519E1,2.523289807E1
2.491961292E0,1.880332173E1,5.644117295E0,-1.552764135E1,2.503055361E1
2.501921292E0,2.142601780E1,6.530499639E0,-1.074714495E1,2.484396887E1
2.511881292E0,2.334235386E1,7.145711510E0,-5.267064271E0,2.497335866E1
2.521841292E0,2.456800276E1,7.400182920E0,2.718224376E-1,2.565976139E1
2.531802292E0,2.457456802E1,6.723473543E0,5.960015459E0,2.616555511E1
2.541762292E0,2.320829825E1,5.355778812E0,1.141616231E1,2.641284226E1
2.551722292E0,2.125211226E1,4.106251631E0,1.623333596E1,2.705614116E1
2.561682292E0,1.933213923E1,3.049514167E0,1.957587574E1,2.768114981E1
2.571643292E0,1.704676669E1,1.980001706E0,2.116079746E1,2.724503644E1
2.581603292E0,1.421479643E1,5.153917140E-1,2.137908571E1,2.567861702E1
2.591563292E0,1.093108666E1,-1.376293647E0,2.141651959E1,2.408423034E1
2.601523292E0,7.038150224E0,-3.695370126E0,2.146401067E1,2.288875429E1
2.611483292E0,2.842524487E0,-6.199812112E0,2.107919605E1,2.215513760E1
2.621444292E0,-8.390140504E-1,-8.499655344E0,2.031913520E1,2.204121914E1
2.631404292E0,-3.636039306E0,-1.012070350E1,1.938667972E1,2.216963626E1
2.641364292E0,-6.096975961E0,-1.145009838E1,1.799320871E1,2.218182654E1
2.651324292E0,-8.184277582E0,-1.249496307E1,1.612316623E1,2.197869403E1
2.661285292E0,-9.319854224E0,-1.321726378E1,1.425780270E1,2.156016425E1
2.671245292E0,-9.877161119E0,-1.392767826E1,1.205181780E1,2.089939822E1
2.681205292E0,-1.027439990E1,-1.458285293E1,9.323831500E0,2.012850533E1
2.691165292E0,-1.061216782E1,-1.514764250E1,6.314825674E0,1.954344398E1
2.701126167E0,-1.078034193E1,-1.547134787E1,3.253082933E0,1.913533186E1
2.711087167E0,-1.081807518E1,-1.565395875E1,4.590725023E-1,1.903386253E1
2.721047167E0,-1.104818300E1,-1.566215187E1,-2.169360569E0,1.928915431E1
2.731007167E0,-1.127256288E1,-1.549333925E1,-4.357715525E0,1.964952721E1
