"Time (s)","Linear Acceleration x (m/s^2)","Linear Acceleration y (m/s^2)","Linear Acceleration z (m/s^2)","Absolute acceleration (m/s^2)"
7.489458309E-3,-8.243246752E-1,5.043749750E-2,2.752950990E-1,8.705414998E-1
1.744945836E-2,-1.068267004E0,-1.607159847E-1,3.079117450E-1,1.123313697E0
2.741045831E-2,-1.351152081E0,-1.307478350E-1,4.098485944E-1,1.417985477E0
3.737045836E-2,-1.807317348E0,2.538393259E-2,6.026913746E-1,1.905328642E0
4.733145831E-2,-2.575443264E0,1.791972792E-1,7.599485850E-1,2.691197043E0
5.729145836E-2,-3.419848447E0,4.296440506E-1,8.815180457E-1,3.557672199E0
6.725245831E-2,-4.336938029E0,4.109364688E-1,8.378753051E-1,4.436207308E0
7.721245836E-2,-5.253729111E0,4.195295370E-1,1.346025243E0,5.439619339E0
8.717345831E-2,-5.409404211E0,6.178828794E-1,1.936246991E0,5.778623156E0
9.713345836E-2,-4.499364325E0,5.866201562E-1,1.877742967E0,4.910633481E0
1.070934583E-1,-3.870428453E0,4.997790635E-1,1.859494392E0,4.322928975E0
1.170544584E-1,-3.657700608E0,5.835760957E-1,1.820622687E0,4.127226886E0
1.270144583E-1,-3.790922400E0,6.110498232E-1,2.091196744E0,4.372365304E0
1.369754584E-1,-4.028825140E0,4.054699069E-1,2.563036057E0,4.792180264E0
1.469354583E-1,-4.296683750E0,-1.153070927E-2,2.830017292E0,5.144960844E0
1.568964584E-1,-4.193651717E0,-4.461150724E-1,2.913627799E0,5.125910683E0
1.668564583E-1,-2.525674396E0,-1.046034721E0,1.836042379E0,3.293064137E0
1.768174584E-1,-1.551010789E0,-1.457675779E0,1.327198962E0,2.508368041E0
1.867774583E-1,-1.240279225E0,-1.411268182E0,1.791600325E0,2.596112894E0
1.967384584E-1,-1.493150836E-1,-2.022400451E0,1.999165955E0,2.847641673E0
2.066984583E-1,1.489936622E0,-2.955967487E0,1.696459694E0,3.719627725E0
2.166594584E-1,3.306704532E0,-3.842582843E0,1.066744097E0,5.180509698E0
2.266194583E-1,5.718973349E0,-4.731139767E0,-3.199996939E-1,7.429181615E0
2.365804584E-1,8.608139906E0,-5.472723125E0,-2.322730404E0,1.046163695E1
2.465404584E-1,1.107163852E1,-5.972637843E0,-4.195562003E0,1.326108302E1
2.565014584E-1,1.360828346E1,-6.523736165E0,-5.900880228E0,1.620385447E1
2.664614584E-1,1.572751322E1,-7.043769398E0,-7.246947863E0,1.869458779E1
2.764214583E-1,1.696278898E1,-7.305907677E0,-7.816092446E0,2.005501927E1
2.863824584E-1,1.750621166E1,-7.392421911E0,-7.800536513E0,2.054175548E1
2.963424583E-1,1.776862768E1,-7.688986257E0,-7.483401078E0,2.075682854E1
3.063034584E-1,1.790449125E1,-8.158069777E0,-7.213532195E0,2.095614363E1
3.162634583E-1,1.738749564E1,-8.970071445E0,-7.123924200E0,2.082156292E1
3.262244584E-1,1.592577125E1,-1.004024698E1,-6.900379298E0,2.005123397E1
3.361844583E-1,1.396182015E1,-1.113969777E1,-5.891569122E0,1.880786737E1
3.461454584E-1,1.133258221E1,-1.234526266E1,-3.425122928E0,1.710451393E1
3.561054583E-1,8.529842180E0,-1.283307013E1,6.133659053E-1,1.542148224E1
3.660664584E-1,6.235616952E0,-1.273156130E1,5.136274921E0,1.507835840E1
3.760264583E-1,4.289209254E0,-1.244998980E1,8.928759112E0,1.590981777E1
3.859874584E-1,2.309787300E0,-1.231488170E1,1.030782843E1,1.622475749E1
3.959474583E-1,-1.279326492E0,-1.243091618E1,9.246078150E0,1.554523447E1
4.059084584E-1,-6.967341027E0,-1.217051160E1,6.808207884E0,1.558899895E1
4.158684583E-1,-1.286275528E1,-1.100285538E1,4.104495712E0,1.741723816E1
4.258294584E-1,-1.731798394E1,-9.099442261E0,1.175379516E0,1.959831458E1
4.357894583E-1,-2.091224401E1,-6.963176056E0,-1.365901683E0,2.208332986E1
4.457504584E-1,-2.292078364E1,-4.612208278E0,-3.089380775E0,2.358344889E1
4.557104583E-1,-2.356019772E1,-2.914881442E0,-3.389119867E0,2.398052510E1
4.656704584E-1,-2.361319689E1,-1.384896070E0,-1.003840335E0,2.367506494E1
4.756314583E-1,-2.346712408E1,4.003500849E-1,3.682204827E0,2.375762668E1
4.855914584E-1,-2.317110528E1,1.520408217E0,7.895170190E0,2.452642398E1
4.955524583E-1,-2.269014139E1,2.106834830E0,9.896893133E0,2.484410922E1
5.055124584E-1,-2.178454802E1,2.100511066E0,9.654621938E0,2.392050175E1
5.154734583E-1,-2.003478277E1,1.483350903E0,7.237392343E0,2.135351724E1
5.254334584E-1,-1.734503784E1,4.461910862E-1,4.266561234E0,1.786765147E1
5.353944583E-1,-1.460164939E1,-8.322885829E-1,1.963697622E0,1.475659098E1
5.453544584E-1,-1.177481064E1,-2.054600483E0,9.279076619E-1,1.198868472E1
5.553154583E-1,-8.133216187E0,-2.868237033E0,5.786999564E-1,8.643545734E0
5.652754584E-1,-4.090736629E0,-3.514977091E0,3.890211046E-1,5.407451113E0
5.752364583E-1,-4.606949584E-1,-3.882194513E0,1.890742497E-1,3.914003469E0
5.851964584E-1,2.298104271E0,-3.827217822E0,2.921279173E-1,4.473725318E0
5.951569583E-1,5.072114593E0,-3.218971739E0,9.051326108E-1,6.075145310E0
6.051169584E-1,7.921881441E0,-2.646154520E0,1.546246039E0,8.494069468E0
6.150779583E-1,1.000774231E1,-2.381841661E0,2.229951610E0,1.052619399E1
6.250379584E-1,1.104345260E1,-1.926949918E0,2.609074402E0,1.150991966E1
6.349989583E-1,1.084467183E1,-1.598893638E0,2.407780641E0,1.122322483E1
6.449589584E-1,1.019843989E1,-1.424884009E0,1.618052187E0,1.042384591E1
6.549189583E-1,9.304703504E0,-1.592943512E0,4.996412154E-1,9.453286078E0
6.648799584E-1,8.151488736E0,-1.715757844E0,-7.079647914E-1,8.360132040E0
6.748399583E-1,7.053442447E0,-1.725101110E0,-1.721929142E0,7.462711583E0
6.848009584E-1,6.151293086E0,-1.693558890E0,-2.303469822E0,6.783253022E0
6.947609583E-1,5.191824639E0,-1.632521560E0,-2.509405103E0,5.993103011E0
7.047219584E-1,4.321929396E0,-1.421936427E0,-2.228806725E0,5.066414544E0
7.146819583E-1,3.551878869E0,-1.195873130E0,-1.482810620E0,4.030469374E0
7.246429584E-1,2.998669411E0,-1.036284488E0,-6.039609513E-1,3.229655184E0
7.346029583E-1,2.598281611E0,-9.960731864E-1,-5.818798184E-2,2.783274145E0
7.445639584E-1,2.036411842E0,-1.057991692E0,1.532799344E-1,2.299959640E0
7.545239583E-1,1.525671003E0,-1.042080833E0,-2.222044274E-2,1.847727854E0
7.644849584E-1,1.016255436E0,-1.079545113E0,-3.157927684E-1,1.515888464E0
7.744449583E-1,5.359022847E-1,-1.128258852E0,-6.004505754E-1,1.385893282E0
7.844059584E-1,-1.682618165E-1,-1.080471312E0,-5.298966095E-1,1.215121686E0
7.943659583E-1,-5.476838395E-1,-8.743171996E-1,-2.528732197E-1,1.062230210E0
8.043269584E-1,-6.020401409E-1,-7.674891543E-1,3.958711177E-3,9.754525128E-1
8.142869583E-1,-4.491065079E-1,-5.762173748E-1,1.859823883E-1,7.538650855E-1
8.242479584E-1,-4.070486552E-1,-3.642926449E-1,3.662672496E-1,6.576849070E-1
8.342079583E-1,-4.125880149E-1,-1.522246581E-1,5.814411311E-1,7.290233230E-1
8.441689584E-1,-1.619044313E-1,-3.229943454E-2,6.104110149E-1,6.323431864E-1
8.541289583E-1,1.925417948E-1,7.777206123E-2,4.038603146E-1,4.541189161E-1
8.640899584E-1,5.571124747E-1,1.103919232E-1,4.078798369E-2,5.694070125E-1
8.740499583E-1,3.457315359E-1,1.491729963E-1,-5.001342818E-2,3.798476283E-1
8.840099584E-1,-4.819389161E-1,8.479339778E-2,2.195524959E-1,5.363378950E-1
8.939709583E-1,-1.081308926E0,1.043359619E-1,6.106609833E-1,1.246202962E0
9.039309584E-1,-1.486402565E0,2.904393876E-1,1.195933356E0,1.929767917E0
9.138919583E-1,-1.572166016E0,6.447046423E-1,1.698045459E0,2.402229888E0
9.238519584E-1,-2.024882302E0,7.885929251E-1,2.109956074E0,3.028851560E0
9.338129583E-1,-2.760150959E0,9.572839272E-1,2.363927401E0,3.758055161E0
9.437729584E-1,-3.440087707E0,1.047680712E0,2.404200683E0,4.325739154E0
9.537339583E-1,-4.093933302E0,1.035769933E0,2.403559974E0,4.859033832E0
9.636939584E-1,-4.855733407E0,1.071118691E0,2.448996202E0,5.542835427E0
9.736549583E-1,-5.723964533E0,1.005295415E0,2.891016616E0,6.490944917E0
9.836149584E-1,-6.215651634E0,7.981928837E-1,3.356499420E0,7.108974995E0
9.935759583E-1,-6.326733529E0,4.822485262E-1,3.771212021E0,7.381203215E0
1.003535958E0,-6.376462344E0,1.580519933E-1,4.098967170E0,7.581938031E0
1.013496958E0,-5.999976500E0,-2.482961655E-1,4.084565185E0,7.262578174E0
1.023456958E0,-5.162357596E0,-6.714001054E-1,3.485763817E0,6.265082875E0
1.033417958E0,-3.959097093E0,-1.144158016E0,2.459195062E0,4.799081966E0
1.043377958E0,-1.348201284E0,-1.481896700E0,8.133725479E-1,2.162230199E0
1.053338958E0,5.271756077E-1,-1.561112439E0,5.471736699E-2,1.648629782E0
1.063298958E0,1.472651083E0,-1.323941771E0,-3.574987650E-2,1.980606240E0
1.073259958E0,2.552459906E0,-1.592171679E0,-2.123813975E-1,3.015819637E0
1.083219958E0,3.197539939E0,-2.042239469E0,-3.386435410E-1,3.809157802E0
1.093180958E0,3.945042726E0,-2.392478331E0,-7.540952298E-1,4.675037357E0
1.103140958E0,4.944562846E0,-2.969248853E0,-1.382004330E0,5.930857986E0
1.113100958E0,6.326976188E0,-3.631837789E0,-2.223940526E0,7.626715209E0
1.123061958E0,7.992772499E0,-4.367771274E0,-2.994650035E0,9.588001197E0
1.133021958E0,1.033771121E1,-5.069442415E0,-3.778109689E0,1.211782292E1
1.142982958E0,1.294654237E1,-5.566572690E0,-4.593789256E0,1.482236791E1
1.152942958E0,1.507636377E1,-5.705059315E0,-4.726601158E0,1.679836912E1
1.162903958E0,1.655148881E1,-5.856648965E0,-4.780503131E0,1.819629988E1
1.172863958E0,1.743544047E1,-6.102983390E0,-5.004095687E0,1.913849431E1
1.182824958E0,1.779363389E1,-6.293331894E0,-5.353642824E0,1.961838232E1
1.192784958E0,1.773290821E1,-6.645644764E0,-5.798400173E0,1.980510218E1
1.202745958E0,1.698014352E1,-7.051706409E0,-6.021396605E0,1.934706836E1
1.212705958E0,1.552492006E1,-7.537473789E0,-5.694034975E0,1.817302089E1
1.222666958E0,1.341236665E1,-8.143049449E0,-4.611132682E0,1.635430763E1
1.232626958E0,1.126424112E1,-8.753049697E0,-2.187133181E0,1.443199774E1
1.242587958E0,9.165632742E0,-9.049799400E0,1.513835069E0,1.296917073E1
1.252547958E0,7.306778913E0,-9.201638142E0,5.197870660E0,1.284823030E1
1.262508958E0,5.730287127E0,-9.604366874E0,8.108017026E0,1.381376103E1
1.272468958E0,3.834084500E0,-9.930108826E0,9.744297177E0,1.443116741E1
1.282429958E0,2.018888467E0,-9.908264798E0,9.513877119E0,1.388392883E1
1.292389958E0,1.703377242E-1,-9.961003175E0,7.990268136E0,1.277086466E1
1.302349958E0,-2.368962292E0,-9.916133981E0,6.445577602E0,1.206180609E1
1.312310958E0,-6.374633920E0,-9.723379932E0,5.209728813E0,1.274053960E1
1.322270958E0,-1.336721796E1,-9.687555796E0,4.398487283E0,1.708443572E1
1.332231958E0,-2.205537000E1,-8.544478930E0,4.411490614E0,2.406052193E1
1.342191958E0,-3.049858568E1,-6.430578325E0,4.535827854E0,3.149745704E1
1.352152958E0,-3.654251102E1,-4.045320720E0,4.881619908E0,3.708840714E1
1.362112958E0,-3.658353275E1,-2.237488525E0,4.094945455E0,3.687993765E1
1.372073958E0,-3.255171851E1,-1.671576868E0,2.455891970E0,3.268699975E1
1.382033958E0,-2.861083549E1,-1.304696830E0,1.672285550E0,2.868934786E1
1.391994958E0,-2.522182906E1,-1.335186551E0,1.546909552E0,2.530447220E1
1.401954958E0,-2.213544878E1,-2.152010418E0,1.194720644E0,2.227187911E1
1.411915958E0,-1.937578285E1,-2.981511633E0,3.722422269E-1,1.960736946E1
1.421875958E0,-1.715266211E1,-3.639401162E0,-2.212487000E-1,1.753590628E1
1.431836958E0,-1.532769114E1,-4.187701006E0,2.696332401E-1,1.589174809E1
1.441796958E0,-1.339411866E1,-4.867623428E0,1.726408548E0,1.435537039E1
1.451757958E0,-1.134749495E1,-5.880706750E0,3.372492140E0,1.321824711E1
1.461717958E0,-9.376312600E0,-6.460785041E0,4.837708488E0,1.237175835E1
1.471677958E0,-7.262085135E0,-7.058420767E0,5.835530577E0,1.168813934E1
1.481638958E0,-4.912703122E0,-7.616620531E0,6.498629975E0,1.115256705E1
1.491598958E0,-1.778766856E0,-8.070597770E0,6.675045733E0,1.062331377E1
1.501559958E0,2.133616832E0,-8.975570751E0,6.122199095E0,1.107224064E1
1.511519958E0,6.059006481E0,-1.018448025E1,5.109069580E0,1.290495213E1
1.521480958E0,9.847613969E0,-1.138045921E1,3.708767851E0,1.549984877E1
1.531440958E0,1.406680808E1,-1.289791459E1,2.039018823E0,1.919345951E1
1.541401958E0,1.904721377E1,-1.427838841E1,-3.294198507E-1,2.380708393E1
1.551361958E0,2.456260227E1,-1.495456978E1,-3.181479392E0,2.893237631E1
1.561322958E0,3.001082966E1,-1.445777748E1,-6.229762135E0,3.388933700E1
1.571282958E0,3.415433507E1,-1.347624631E1,-9.342719176E0,3.788686079E1
1.581243958E0,3.521481183E1,-1.298048663E1,-1.214896344E1,3.944836268E1
1.591203958E0,3.262087470E1,-1.287405795E1,-1.399800974E1,3.775986111E1
1.601165292E0,2.734196865E1,-1.282036647E1,-1.429091665E1,3.340921048E1
1.611125292E0,2.115784111E1,-1.257484306E1,-1.295031265E1,2.781171545E1
1.621085292E0,1.580762007E1,-1.196698289E1,-1.012876447E1,2.226390356E1
1.631046292E0,1.170272733E1,-1.100322259E1,-5.452629168E0,1.696336934E1
1.641006292E0,9.166128586E0,-1.011787929E1,5.750824302E-1,1.366455687E1
1.650967292E0,7.743269468E0,-9.444670644E0,6.375946035E0,1.377725348E1
1.660927292E0,6.113323606E0,-8.918767390E0,1.108788559E1,1.548736079E1
1.670888292E0,4.564831213E0,-8.237516481E0,1.379350922E1,1.670195373E1
1.680848292E0,3.519272748E0,-8.073537750E0,1.388083271E1,1.643912434E1
1.690809292E0,2.693031355E0,-8.269965604E0,1.167894554E1,1.456167978E1
1.700769292E0,1.938351550E0,-8.652162423E0,8.531653063E0,1.230472370E1
1.710730292E0,6.482089517E-1,-9.045516899E0,6.027608687E0,1.088915136E1
1.720690292E0,-3.450135855E0,-1.006170626E1,5.112199595E0,1.180152342E1
1.730651292E0,-1.134523676E1,-1.145501121E1,4.954223031E0,1.686641648E1
1.740611292E0,-2.198665586E1,-1.131121415E1,4.196692269E0,2.507925093E1
1.750572292E0,-3.261435622E1,-9.269526070E0,3.630453753E0,3.409986129E1
1.760532292E0,-3.945624407E1,-6.706385055E0,3.521628883E0,4.017676775E1
1.770492292E0,-4.083786628E1,-5.371300246E0,1.604350260E0,4.122082154E1
1.780453292E0,-3.750088838E1,-4.317409206E0,-1.434357083E0,3.777583926E1
1.790413292E0,-3.257458580E1,-3.138881841E0,-3.150689709E0,3.287678611E1
1.800374292E0,-2.762646142E1,-3.019127356E0,-2.549868420E0,2.790767510E1
1.810334292E0,-2.308569851E1,-3.377266392E0,-1.106252856E0,2.335763685E1
1.820295292E0,-1.926981376E1,-3.788529135E0,2.058980048E-1,1.963978283E1
1.830255292E0,-1.617086197E1,-3.903674260E0,1.701964263E0,1.672220476E1
1.840216292E0,-1.363460295E1,-3.948004925E0,3.593310485E0,1.464243903E1
1.850176292E0,-1.142452500E1,-4.252326772E0,5.532011552E0,1.338675488E1
1.860137292E0,-9.225071443E0,-4.928804600E0,6.970917769E0,1.256935768E1
1.870097292E0,-6.593574139E0,-5.919788370E0,6.935145088E0,1.125234872E1
1.880058292E0,-3.987696117E0,-6.602281812E0,6.056806759E0,9.806974741E0
1.890018292E0,-1.066567511E0,-7.018780738E0,4.965584171E0,8.663594834E0
1.899979292E0,1.638569920E0,-7.590743093E0,4.138720635E0,8.799619343E0
1.909939292E0,4.100970426E0,-8.788825302E0,3.319170796E0,1.025077087E1
1.919899292E0,7.040907771E0,-1.010882313E1,2.196366811E0,1.251346133E1
1.929860292E0,1.089837850E1,-1.136640251E1,9.408304471E-1,1.577513619E1
1.939820292E0,1.601526172E1,-1.233698183E1,-4.755125338E-1,2.022166761E1
1.949781292E0,2.228394935E1,-1.268358607E1,-2.208876345E0,2.573571233E1
1.959741292E0,2.871457211E1,-1.250631837E1,-4.290841797E0,3.161243385E1
1.969702292E0,3.256748494E1,-1.238984300E1,-6.737088785E0,3.548996549E1
1.979662292E0,3.262659094E1,-1.223686581E1,-9.057549884E0,3.600381273E1
1.989623292E0,2.986902766E1,-1.247734775E1,-1.080426991E1,3.412587389E1
1.999583292E0,2.532717250E1,-1.279352775E1,-1.158730798E1,3.064972635E1
2.009544292E0,2.009009275E1,-1.244467351E1,-1.145397743E1,2.626167025E1
2.019504292E0,1.551982480E1,-1.165599873E1,-1.017561938E1,2.191507467E1
2.029465292E0,1.218695865E1,-1.080544403E1,-7.163171881E0,1.779299337E1
2.039425292E0,9.861738503E0,-9.887104894E0,-2.492724166E0,1.418528827E1
2.049385292E0,8.448882802E0,-9.113967329E0,2.744701738E0,1.272719171E1
2.059346292E0,7.495467392E0,-8.466285869E0,7.586643611E0,1.361679805E1
2.069306292E0,6.547577602E0,-7.691267840E0,1.146548942E1,1.528017739E1
2.079267292E0,5.471901006E0,-6.981343355E0,1.341333963E1,1.608099921E1
2.089227292E0,4.473499166E0,-6.477553686E0,1.283224100E1,1.505447792E1
2.099188292E0,3.682653601E0,-6.257542841E0,1.071213182E1,1.294096395E1
2.109148292E0,3.038918720E0,-6.482280575E0,8.746930001E0,1.130326382E1
2.119109292E0,1.914135745E0,-7.009480741E0,7.753563491E0,1.062612266E1
2.129069292E0,-9.638192870E-1,-8.252947283E0,7.523808846E0,1.120927232E1
2.139030292E0,-7.347058042E0,-9.833685901E0,7.318557544E0,1.429132341E1
2.148990292E0,-1.615748939E1,-1.046270363E1,6.109875503E0,2.019562352E1
2.158951292E0,-2.387425635E1,-9.582552667E0,3.936871242E0,2.602507228E1
2.168911292E0,-2.921957742E1,-8.577152002E0,1.782140699E0,3.050454501E1
2.178871292E0,-3.246130886E1,-7.915293968E0,-7.736614752E-1,3.342135550E1
2.188832292E0,-3.299980468E1,-7.296128209E0,-3.601527577E0,3.398810963E1
2.198792292E0,-3.119005401E1,-6.225093718E0,-5.560088713E0,3.228754942E1
2.208753292E0,-2.798675047E1,-5.350819788E0,-5.732205014E0,2.906454281E1
2.218713292E0,-2.392375420E1,-4.624755818E0,-4.260503519E0,2.473633505E1
2.228674292E0,-2.012745880E1,-3.937609745E0,-1.959390271E0,2.060239254E1
2.238634292E0,-1.700776225E1,-3.580710905E0,4.304135442E-2,1.738065937E1
2.248595292E0,-1.441471390E1,-3.660516627E0,1.336419729E0,1.493215914E1
2.258555292E0,-1.231846370E1,-3.739067538E0,2.131646320E0,1.304871986E1
2.268516292E0,-1.079000972E1,-3.863420858E0,2.764782246E0,1.178958656E1
2.278476292E0,-9.654112061E0,-3.854700905E0,3.502395052E0,1.096938329E1
2.288437292E0,-8.545788122E0,-4.018411249E0,4.113192276E0,1.030031428E1
2.298397292E0,-7.017486749E0,-4.448765152E0,4.377150793E0,9.391276841E0
2.308357292E0,-5.253767118E0,-4.552833311E0,4.267335405E0,8.157236759E0
2.318318292E0,-3.695097061E0,-4.632271829E0,4.425478615E0,7.395711295E0
2.328278292E0,-1.941400435E0,-5.059202771E0,4.539719176E0,7.069202114E0
2.338239292E0,-3.016479152E-1,-5.579839438E0,5.077477074E0,7.550256489E0
2.348199292E0,1.510764696E0,-5.994368436E0,5.964137161E0,8.589865831E0
2.358160292E0,3.970508812E0,-6.682133144E0,6.483428383E0,1.012179269E1
2.368120292E0,6.502813073E0,-7.476620062E0,6.468000505E0,1.183306621E1
2.378081292E0,9.166643726E0,-8.458059422E0,5.633137978E0,1.368569947E1
2.388041292E0,1.311911242E1,-9.499003556E0,3.693165725E0,1.661269551E1
2.398002292E0,1.768798288E1,-1.083521103E1,1.260116488E0,2.078110753E1
2.407962292E0,2.220916580E1,-1.137423778E1,-1.067922603E0,2.497520349E1
2.417923292E0,2.669030348E1,-1.117464190E1,-3.281296626E0,2.912064266E1
2.427883292E0,2.978572589E1,-1.099577440E1,-5.253406345E0,3.218221247E1
2.437843292E0,3.051022398E1,-1.094781905E1,-6.842107117E0,3.312918560E1
2.447804292E0,2.859748513E1,-1.102924737E1,-7.968266818E0,3.166944473E1
2.457764292E0,2.489186367E1,-1.110170958E1,-8.587158927E0,2.857607620E1
2.467725292E0,2.021324681E1,-1.099521307E1,-8.437395946E0,2.450835995E1
2.477685292E0,1.582015650E1,-1.063239217E1,-7.076472291E0,2.033227914E1
2.487646292E0,1.263565059E1,-1.017747645E1,-4.277928221E0,1.677919434E1
2.497606292E0,1.059163474E1,-9.738804302E0,-5.927234799E-1,1.440063737E1
2.507567292E0,8.912231373E0,-9.440585194E0,3.402068526E0,1.342112466E1
2.517527292E0,7.579662620E0,-9.016104235E0,6.808656365E0,1.360511751E1
2.527488292E0,6.270502610E0,-8.494476466E0,9.429657918E0,1.415605107E1
2.537448292E0,5.361069957E0,-7.756574222E0,1.085461443E1,1.437804469E1
2.547408292E0,4.570745671E0,-7.405361799E0,1.082204193E1,1.388696118E1
2.557369292E0,3.747850056E0,-7.596949328E0,1.010907573E1,1.318914065E1
2.567329292E0,2.530736623E0,-8.339300133E0,9.187397833E0,1.266320787E1
2.577290292E0,-6.640638962E-2,-9.729326550E0,8.062909266E0,1.263624591E1
2.587250292E0,-5.183901662E0,-1.131600652E1,7.028691183E0,1.429431145E1
2.597211333E0,-1.319713298E1,-1.250151780E1,5.897469547E0,1.911105474E1
2.607171333E0,-2.305904222E1,-1.261111567E1,4.561505901E0,2.667521327E1
2.617132333E0,-3.292094445E1,-1.144227247E1,3.547853646E0,3.503286240E1
2.627092333E0,-3.934377638E1,-9.958472500E0,1.655972988E0,4.061829835E1
2.637053333E0,-4.058890587E1,-8.833910258E0,-1.654494812E0,4.157204113E1
2.647013333E0,-3.766028347E1,-7.746893572E0,-4.396051333E0,3.869930980E1
2.656974333E0,-3.217602555E1,-6.898968950E0,-5.024660345E0,3.328873089E1
2.666934333E0,-2.585635019E1,-6.270490331E0,-3.521678585E0,2.683788580E1
2.676894333E0,-2.016766425E1,-5.425372957E0,-1.234786935E0,2.092113888E1
2.686855333E0,-1.549440461E1,-5.063049654E0,9.329068851E-1,1.632731948E1
2.696815333E0,-1.174388705E1,-4.757198176E0,2.749104107E0,1.296562343E1
2.706776333E0,-9.011643394E0,-4.492024022E0,4.005726884E0,1.083668973E1
2.716736333E0,-7.253850501E0,-4.257868763E0,5.038437554E0,9.804776718E0
