"Time (s)","Linear Acceleration x (m/s^2)","Linear Acceleration y (m/s^2)","Linear Acceleration z (m/s^2)","Absolute acceleration (m/s^2)"
3.759250016E-3,2.054597560E-1,1.682366735E-1,-1.305420130E-1,2.959028672E-1
1.372025002E-2,2.218234813E-1,2.243752062E-1,9.153640687E-2,3.285251951E-1
2.368225000E-2,3.988876963E-1,2.794197249E-1,6.440941930E-2,4.912589442E-1
3.364325000E-2,6.056066501E-1,5.099041021E-1,-1.536443621E-1,8.064540892E-1
4.360525002E-2,5.838883370E-1,7.297974175E-1,-1.520194209E-1,9.469106426E-1
5.356725000E-2,7.840584093E-1,8.495945871E-1,-1.245889628E-1,1.162790162E0
6.352825000E-2,9.045239156E-1,7.296904135E-1,2.029130012E-1,1.179739505E0
7.349025001E-2,1.861943498E0,1.240556967E0,-2.760754099E-1,2.254336446E0
8.345125002E-2,2.676149567E0,1.888736025E0,-5.940759408E-1,3.328967783E0
9.341325000E-2,3.070226759E0,2.325927077E0,-1.903958666E-1,3.856485408E0
1.033752500E-1,3.603932537E0,2.630719625E0,1.249032506E-1,4.463699844E0
1.133362500E-1,4.197169402E0,2.714130741E0,3.295636922E-1,5.009126560E0
1.232982500E-1,4.601093890E0,2.802604961E0,-8.160958886E-3,5.387460084E0
1.332592500E-1,4.685731752E0,2.915976625E0,-6.419254607E-1,5.556174046E0
1.432212500E-1,4.537328834E0,2.905772649E0,-1.199691362E0,5.519975272E0
1.531822500E-1,4.140768914E0,2.810374156E0,-1.497955493E0,5.223795628E0
1.631442500E-1,3.639630373E0,2.723068795E0,-1.676018997E0,4.844693240E0
1.731062500E-1,3.189971888E0,2.664856839E0,-1.763371722E0,4.515181331E0
1.830672500E-1,2.747684403E0,2.471993448E0,-1.660123634E0,4.051731934E0
1.930292500E-1,2.224995949E0,2.130631828E0,-1.345518581E0,3.361639364E0
2.029902500E-1,1.770359729E0,1.745219041E0,-8.621089442E-1,2.631196477E0
2.129522500E-1,1.294651898E0,1.484340252E0,-3.996916884E-1,2.009761918E0
2.229142500E-1,8.040868771E-1,1.452844225E0,-3.418647721E-2,1.660867473E0
2.328752500E-1,4.875162828E-1,1.424121532E0,3.301222475E-1,1.541030487E0
2.428372500E-1,3.286410016E-1,1.226861619E0,6.461120671E-1,1.425010576E0
2.527982500E-1,1.752053851E-1,7.932174879E-1,7.465327334E-1,1.103268794E0
2.627602500E-1,-7.415146530E-2,3.659129083E-1,7.110190845E-1,8.030808395E-1
2.727212500E-1,-6.046257797E-1,6.260262966E-2,7.676587967E-1,9.791789677E-1
2.826832500E-1,-1.366965584E0,-2.972975868E-1,1.102326597E0,1.781040338E0
2.926452500E-1,-2.190470771E0,-5.812027109E-1,1.280353263E0,2.602933589E0
3.026062500E-1,-2.711526099E0,-1.041992540E0,1.444940689E0,3.244376031E0
3.125682500E-1,-3.028385253E0,-1.240060539E0,1.630775582E0,3.656268094E0
3.225292500E-1,-3.150072535E0,-1.490219042E0,1.596730753E0,3.833178690E0
3.324912500E-1,-2.509189925E0,-1.680824239E0,1.018539651E0,3.187260144E0
3.424532500E-1,-1.614180014E0,-1.524310064E0,2.769603860E-1,2.237365715E0
3.524142500E-1,-6.901801926E-1,-1.209183732E0,-2.486727262E-1,1.414323909E0
3.623762500E-1,2.014938819E-1,-9.619874275E-1,-5.386905295E-1,1.120806443E0
3.723372500E-1,8.786676742E-1,-8.798533434E-1,-5.945583361E-1,1.378295470E0
3.822992500E-1,9.354100782E-1,-1.010774256E0,-7.177755421E-1,1.553015885E0
3.922602500E-1,5.324864144E-1,-1.550322572E0,-1.037394875E0,1.939904633E0
4.022222500E-1,-4.283465534E-2,-2.482754663E0,-1.288859062E0,2.797688904E0
4.121842500E-1,-2.039776330E-1,-3.387596083E0,-1.160506831E0,3.586668398E0
4.221452500E-1,2.212800557E-1,-3.980108478E0,-4.437156674E-1,4.010874213E0
4.321072500E-1,7.079917616E-1,-4.594450868E0,6.699517500E-1,4.696708045E0
4.420682500E-1,8.800597501E-1,-5.000070464E0,3.304706246E0,6.057746543E0
4.520302500E-1,4.710038189E-1,-4.995065247E0,6.092537924E0,7.892498957E0
4.619922500E-1,8.179536952E-1,-5.315458751E0,7.083411766E0,8.893698457E0
4.719532500E-1,1.628193305E0,-5.543330008E0,8.211926726E0,1.004068033E1
4.819152500E-1,2.566869784E0,-5.712778809E0,8.929328631E0,1.090676726E1
4.918762500E-1,3.371461276E0,-5.691558094E0,1.022379459E1,1.217729693E1
5.018382500E-1,4.255321131E0,-5.776799973E0,1.159148289E1,1.363237512E1
5.118002500E-1,5.099075519E0,-5.691546400E0,1.296640419E1,1.505064481E1
5.217612500E-1,5.617017789E0,-5.577018156E0,1.418348576E1,1.624269955E1
5.317232500E-1,5.731839563E0,-5.680044926E0,1.513460321E1,1.715147543E1
5.416842500E-1,5.523156529E0,-6.161038640E0,1.570957513E1,1.775540498E1
5.516462500E-1,5.141504086E0,-6.786386075E0,1.593088756E1,1.806331306E1
5.616072500E-1,4.856557865E0,-7.435632250E0,1.581010046E1,1.813378223E1
5.715692500E-1,4.895557331E0,-8.147986838E0,1.540586724E1,1.810240085E1
5.815312500E-1,4.907775673E0,-8.790223371E0,1.462836648E1,1.775791077E1
5.914922500E-1,5.589147035E0,-9.271394255E0,1.350381711E1,1.730752416E1
6.014542500E-1,6.249174891E0,-9.528065972E0,1.220094051E1,1.669428577E1
6.114152500E-1,6.953749759E0,-9.674038787E0,1.085622125E1,1.611828781E1
6.213772500E-1,8.295648329E0,-9.158938265E0,9.547805003E0,1.561616188E1
6.313392500E-1,9.379639665E0,-8.492307149E0,8.405775374E0,1.519058855E1
6.413002500E-1,9.879832127E0,-7.978474887E0,7.625210091E0,1.481252758E1
6.512622500E-1,1.035479795E1,-7.371549690E0,7.042004124E0,1.453104977E1
6.612232500E-1,1.113612629E1,-6.897175609E0,6.568357437E0,1.465358862E1
6.711852500E-1,1.160605064E1,-6.889704037E0,5.704678661E0,1.465304719E1
6.811472500E-1,1.159045378E1,-7.257948230E0,4.322797708E0,1.434235027E1
6.911082500E-1,1.125970485E1,-7.445752026E0,2.516428193E0,1.373144521E1
7.010672917E-1,1.100572987E1,-7.559535334E0,4.329009497E-1,1.335889471E1
7.110282917E-1,1.105529321E1,-7.438776298E0,-1.473009517E0,1.340614254E1
7.209902917E-1,1.124893428E1,-7.030816061E0,-3.304704784E0,1.367084382E1
7.309512917E-1,1.180237324E1,-6.284887930E0,-5.267621511E0,1.437162715E1
7.409132917E-1,1.236741542E1,-5.252804666E0,-7.080726725E0,1.518820635E1
7.508752917E-1,1.244676915E1,-4.392076396E0,-8.766001865E0,1.584472108E1
7.608362917E-1,1.190901710E1,-3.628475640E0,-1.013804400E1,1.605523155E1
7.707982917E-1,1.097655928E1,-3.063149874E0,-1.101416039E1,1.584864253E1
7.807592917E-1,9.954140882E0,-3.044044681E0,-1.097965480E1,1.512957198E1
7.907212917E-1,8.960673215E0,-2.996879286E0,-1.051136182E1,1.413377788E1
8.006832917E-1,8.067815080E0,-3.165214192E0,-1.019763415E1,1.338282344E1
8.106442917E-1,7.216455218E0,-3.494593112E0,-9.938609508E0,1.276970500E1
8.206062917E-1,6.417244334E0,-3.651478001E0,-9.715469234E0,1.220264967E1
8.305672917E-1,5.916452533E0,-3.726476144E0,-9.565485229E0,1.184860931E1
8.405292917E-1,5.685981604E0,-3.475445528E0,-9.283375200E0,1.142760533E1
8.504902917E-1,5.365105121E0,-3.168531318E0,-9.241605615E0,1.114590589E1
8.604522917E-1,4.978006580E0,-3.095871477E0,-9.165633911E0,1.087997310E1
8.704142917E-1,4.661034867E0,-3.011665725E0,-8.796408556E0,1.040058556E1
8.803752917E-1,4.262408541E0,-3.087675435E0,-8.408120692E0,9.919594736E0
8.903372917E-1,3.894428058E0,-3.226352094E0,-7.940153990E0,9.413923896E0
9.002982917E-1,3.802632034E0,-3.307723702E0,-7.287990639E0,8.860917223E0
9.102602917E-1,3.657688329E0,-3.371977877E0,-6.430787070E0,8.130433018E0
9.202222917E-1,3.183187948E0,-3.222017846E0,-5.696176810E0,7.277397527E0
9.301832917E-1,2.657199910E0,-3.112148079E0,-5.331748509E0,6.721139725E0
9.401452917E-1,2.384357718E0,-2.965195563E0,-5.089202496E0,6.354331475E0
9.501062917E-1,1.777852351E0,-2.867682717E0,-5.100049081E0,6.115133995E0
9.600682917E-1,1.053371222E0,-2.785468526E0,-5.323388745E0,6.099745369E0
9.700292917E-1,5.991793907E-1,-2.650560689E0,-5.358195466E0,6.007890358E0
9.799912917E-1,4.470196366E-1,-2.347620832E0,-5.176193862E0,5.701239604E0
9.899532917E-1,3.055088317E-1,-2.083802355E0,-4.864390503E0,5.300741728E0
9.999142917E-1,3.692867517E-2,-1.899994839E0,-4.606297620E0,4.982902957E0
1.009876292E0,-5.235392243E-1,-1.800618778E0,-4.345161553E0,4.732520494E0
1.019837292E0,-1.339711127E0,-1.755529728E0,-4.148218852E0,4.699407428E0
1.029799292E0,-2.036346645E0,-1.733680730E0,-3.951561787E0,4.771498411E0
1.039761292E0,-2.497096714E0,-1.651394033E0,-3.610390202E0,4.690150494E0
1.049722292E0,-2.447770187E0,-1.448193934E0,-3.129194467E0,4.228557978E0
1.059684292E0,-2.110418589E0,-1.249416376E0,-2.473621020E0,3.483347363E0
1.069645292E0,-1.699358159E0,-1.094261093E0,-1.788640756E0,2.698974110E0
1.079607292E0,-1.244186919E0,-9.282753056E-1,-1.048574166E0,1.873286928E0
1.089568292E0,-8.111526525E-1,-7.222086087E-1,-2.848374626E-1,1.122802868E0
1.099530292E0,-4.808253139E-1,-5.996816665E-1,4.171260390E-1,8.745314266E-1
1.109492292E0,-2.396592432E-1,-5.852185786E-1,8.765417728E-1,1.080852819E0
1.119453292E0,-4.681982517E-2,-5.917078185E-1,1.088577307E0,1.239883379E0
1.129415292E0,1.473457414E-1,-4.618306339E-1,1.111471203E0,1.212586713E0
1.139376292E0,3.029775721E-1,-2.562773225E-1,9.633352107E-1,1.041867652E0
1.149338292E0,5.641721106E-1,-1.378858235E-1,6.888651538E-1,9.010204608E-1
1.159299292E0,9.326250494E-1,-3.818962723E-2,4.187387010E-1,1.023029829E0
1.169261292E0,1.318606187E0,1.011015746E-1,1.967608532E-1,1.337033521E0
1.179223292E0,1.817108803E0,1.568024433E-1,1.446039820E-1,1.829585122E0
1.189184292E0,2.392722160E0,1.142616105E-1,2.585530588E-1,2.409361894E0
1.199146292E0,3.134064320E0,7.409357786E-2,5.297141764E-1,3.179378262E0
1.209107292E0,4.037112399E0,1.674701035E-1,8.470355532E-1,4.128412768E0
1.219069292E0,5.191713542E0,4.786896184E-1,1.063555610E0,5.321107383E0
1.229031292E0,6.387329979E0,8.091967589E-1,1.165852355E0,6.543087602E0
1.238992292E0,7.356808859E0,9.828643262E-1,1.137484004E0,7.508830051E0
1.248954292E0,8.058746048E0,1.072803274E0,8.816227108E-1,8.177502879E0
1.258915292E0,8.389256405E0,1.064589690E0,4.237757850E-1,8.467145927E0
1.268877292E0,8.367248654E0,8.910212329E-1,2.606630266E-2,8.414597336E0
1.278838292E0,8.087633048E0,6.036244440E-1,-2.872082162E-1,8.115211602E0
1.288800292E0,7.693906689E0,2.163224208E-1,-4.802046320E-1,7.711912345E0
1.298762292E0,7.188881503E0,-1.725717992E-1,-6.044313598E-1,7.216310384E0
1.308723292E0,6.446576892E0,-4.704406589E-1,-1.017075508E0,6.543249240E0
1.318685292E0,5.453085836E0,-8.471042579E-1,-1.759742939E0,5.792272953E0
1.328646292E0,4.316315192E0,-1.284750808E0,-2.551391619E0,5.175979199E0
1.338608292E0,3.148492910E0,-1.637496956E0,-3.305262024E0,4.849655754E0
1.348569292E0,2.043838683E0,-2.114038600E0,-3.861460871E0,4.853587933E0
1.358531292E0,8.817133427E-1,-2.454952907E0,-4.250564421E0,4.987134457E0
1.368493292E0,7.135006428E-2,-2.616290451E0,-4.583511897E0,5.278129201E0
1.378454292E0,-8.328423142E-2,-2.557630014E0,-4.617847917E0,5.279481692E0
1.388416292E0,1.675040174E-1,-2.611407441E0,-4.497150861E0,5.203063740E0
1.398377292E0,6.456337649E-1,-2.796001700E0,-4.130185454E0,5.029204743E0
1.408339292E0,1.232438108E0,-2.799739240E0,-3.596710056E0,4.721627551E0
1.418300292E0,1.718626488E0,-2.807520715E0,-2.851951368E0,4.355396213E0
1.428262292E0,2.112197312E0,-2.803299025E0,-2.003817561E0,4.041676351E0
1.438224292E0,2.177482059E0,-2.806789228E0,-1.216030090E0,3.754760055E0
1.448185292E0,1.902593341E0,-2.922412071E0,-6.321951091E-1,3.544012470E0
1.458147292E0,1.286297396E0,-3.129859588E0,-1.648872422E-1,3.387885747E0
1.468108292E0,7.661057031E-1,-3.237545419E0,4.578466335E-1,3.358309371E0
1.478070292E0,5.222347105E-1,-3.127354056E0,1.204218569E0,3.391638961E0
1.488031292E0,5.387674204E-1,-3.150657549E0,1.954514570E0,3.746603866E0
1.497993292E0,1.336380845E0,-2.957348015E0,2.506868581E0,4.100757384E0
1.507954292E0,1.637004913E0,-2.878043398E0,2.735402327E0,4.294804393E0
1.517916292E0,6.425350329E-1,-3.377676866E0,2.708900406E0,4.377178737E0
1.527878292E0,-1.249514902E-1,-3.385908576E0,2.814230687E0,4.404529955E0
1.537839292E0,-2.570348293E-2,-3.102830248E0,3.066125522E0,4.362263396E0
1.547801292E0,3.336191748E-1,-2.656768970E0,3.771407026E0,4.625282053E0
1.557762292E0,4.878793949E-1,-2.311287403E0,4.720683483E0,5.278724118E0
1.567724292E0,1.819118491E-1,-2.326145178E0,5.410098860E0,5.891792001E0
1.577685292E0,-3.679415998E-1,-2.526383078E0,5.480496998E0,6.045977160E0
1.587647292E0,-8.747240927E-1,-2.786819233E0,5.039057359E0,5.824397200E0
1.597609292E0,-1.348843600E0,-3.162982895E0,4.334254450E0,5.532594462E0
1.607570292E0,-1.479768606E0,-3.372994416E0,3.367006282E0,4.990344453E0
1.617532292E0,-1.182150153E0,-3.386848809E0,2.305665013E0,4.264307094E0
1.627493292E0,-8.182383815E-1,-3.102518007E0,1.995286328E0,3.778399074E0
1.637455292E0,-3.875498720E-1,-2.860271956E0,2.532034997E0,3.839603077E0
1.647416292E0,1.472560232E-1,-2.762978380E0,3.221377868E0,4.246529081E0
1.657378292E0,5.634704447E-1,-2.695775161E0,3.633201944E0,4.559041460E0
1.667340292E0,8.240123608E-1,-2.610922707E0,3.621694039E0,4.540108089E0
1.677301292E0,1.201891377E0,-2.754464250E0,3.275855207E0,4.445541983E0
1.687263292E0,1.456703095E0,-3.024438967E0,2.890912535E0,4.430190770E0
1.697224000E0,2.032782767E0,-3.033163013E0,2.744509365E0,4.567780128E0
1.707186000E0,3.083103497E0,-2.750355411E0,3.163305661E0,5.203506968E0
1.717147000E0,4.369197410E0,-2.363952690E0,3.667236832E0,6.174689006E0
1.727109000E0,5.756849858E0,-1.909973112E0,3.848971218E0,7.183585248E0
1.737071000E0,6.901500210E0,-1.462952891E0,3.649008138E0,7.942681958E0
1.747032000E0,7.606827030E0,-1.308937815E0,3.206996056E0,8.358346689E0
1.756994000E0,7.820955575E0,-1.360095105E0,3.062096205E0,8.508445097E0
1.766955000E0,7.650902756E0,-1.450176140E0,3.460531327E0,8.521420122E0
1.776917000E0,7.266604448E0,-1.682341007E0,4.247739047E0,8.583536478E0
1.786878000E0,6.792175988E0,-1.969308318E0,5.141711662E0,8.743513522E0
1.796840000E0,6.084310307E0,-2.289006003E0,6.019174663E0,8.859392983E0
1.806801000E0,5.504455379E0,-2.618422346E0,6.816141386E0,9.144120953E0
1.816763000E0,5.111492082E0,-2.782968256E0,7.516463574E0,9.506286777E0
1.826725000E0,5.106679823E0,-2.634630243E0,8.081812729E0,9.916408237E0
1.836686000E0,5.687307168E0,-2.369721553E0,8.285185906E0,1.032498661E1
1.846648000E0,5.894530152E0,-2.486293398E0,8.184388095E0,1.038803875E1
1.856609000E0,5.638401057E0,-2.754267198E0,8.334877884E0,1.043301220E1
1.866571000E0,5.313181261E0,-2.897055620E0,8.884803253E0,1.075000257E1
1.876532000E0,5.207329116E0,-3.058130039E0,9.544838126E0,1.129479396E1
1.886494000E0,5.185730086E0,-3.308548159E0,9.984269246E0,1.172705930E1
1.896456000E0,5.264197966E0,-3.609482714E0,1.003133933E1,1.188982399E1
1.906417000E0,5.399836997E0,-3.931329251E0,9.654027861E0,1.173941409E1
1.916379000E0,5.583713803E0,-4.299721379E0,9.170453187E0,1.156558150E1
1.926340000E0,5.954906162E0,-4.773154058E0,8.837382334E0,1.167661053E1
1.936302000E0,6.622819573E0,-5.036617901E0,9.059520396E0,1.230057595E1
1.946263000E0,7.214589956E0,-5.164390672E0,9.700304480E0,1.314599354E1
1.956225000E0,8.138199769E0,-5.316908861E0,1.033558633E1,1.418887452E1
1.966186000E0,9.660933423E0,-5.739046256E0,1.065237445E1,1.548364840E1
1.976148000E0,1.115331944E1,-6.066985007E0,9.981778332E0,1.615056471E1
1.986110000E0,1.228821605E1,-6.220725263E0,8.222126609E0,1.604060605E1
1.996071000E0,1.284740049E1,-5.997526517E0,5.742391448E0,1.529709395E1
2.006033000E0,1.254964974E1,-5.892083677E0,2.977775263E0,1.418017998E1
2.015994000E0,1.166000056E1,-6.222721503E0,3.343451066E-1,1.322080416E1
2.025956000E0,1.053705566E1,-6.652967817E0,-1.667460866E0,1.257266672E1
2.035917000E0,9.832521136E0,-6.243076245E0,-3.081847515E0,1.204791505E1
2.045879000E0,9.797113906E0,-5.705969726E0,-4.257992724E0,1.211082299E1
2.055841000E0,9.771750439E0,-5.220550840E0,-5.234633274E0,1.225327072E1
2.065802000E0,9.512433441E0,-5.055011487E0,-5.927536515E0,1.229533327E1
2.075764000E0,9.002227623E0,-5.123165463E0,-6.531725215E0,1.224542204E1
2.085725000E0,8.667744083E0,-5.518901510E0,-7.113607373E0,1.249765863E1
2.095687000E0,8.451319921E0,-5.880062386E0,-7.602570841E0,1.279839933E1
2.105648000E0,8.470363133E0,-5.595710535E0,-7.916744077E0,1.287376653E1
2.115610000E0,8.260074454E0,-5.312086662E0,-8.185411357E0,1.278468043E1
2.125571000E0,7.702816676E0,-4.767339879E0,-8.643656479E0,1.252093094E1
2.135533000E0,6.955759447E0,-4.195326652E0,-9.124030972E0,1.221602621E1
2.145495000E0,5.986073576E0,-3.858917917E0,-9.445977497E0,1.183008095E1
2.155456000E0,4.972808990E0,-3.605618289E0,-9.575392751E0,1.137617945E1
2.165418000E0,3.918421522E0,-3.762051481E0,-9.656403585E0,1.107940381E1
2.175379000E0,2.997213162E0,-4.021267614E0,-9.301879883E0,1.056782141E1
2.185341000E0,2.347063592E0,-3.962340252E0,-8.602825372E0,9.757943029E0
2.195302000E0,2.021829763E0,-3.857075752E0,-7.839401202E0,8.967777882E0
2.205264000E0,1.880719492E0,-3.562665520E0,-6.984602593E0,8.063148566E0
2.215225000E0,1.703485708E0,-3.167494606E0,-6.153813236E0,7.127713727E0
2.225187000E0,1.564527213E0,-2.900406659E0,-5.498005316E0,6.410005198E0
2.235149000E0,1.221075799E0,-2.742570428E0,-4.994517363E0,5.827342649E0
2.245110000E0,6.491900414E-1,-2.800178366E0,-4.591536031E0,5.417070216E0
2.255072000E0,1.644131792E-1,-2.739832470E0,-4.313790949E0,5.112974282E0
2.265033000E0,-2.993540525E-2,-2.456400970E0,-3.982275164E0,4.679029529E0
2.274995000E0,-1.213648081E-2,-2.138398977E0,-3.783798738E0,4.346266256E0
2.284956000E0,-5.122628689E-2,-1.921784780E0,-3.680406516E0,4.152261191E0
2.294918000E0,-2.607384557E-1,-1.858786294E0,-3.556196745E0,4.021144902E0
2.304879000E0,-4.059768605E-1,-1.875367828E0,-3.277783034E0,3.798115759E0
2.314841000E0,-4.078111321E-1,-1.854582146E0,-2.807590005E0,3.389446340E0
2.324803000E0,-2.854125363E-1,-1.796014095E0,-2.348191520E0,2.970038781E0
2.334764000E0,-7.155296266E-2,-1.745793237E0,-1.952507806E0,2.620152779E0
2.344726000E0,1.334849167E-1,-1.525312276E0,-1.567653427E0,2.191331337E0
2.354687000E0,2.790618753E-1,-1.245565107E0,-1.372646154E0,1.874424026E0
2.364649000E0,4.031076318E-1,-9.016804147E-1,-1.354420967E0,1.676299344E0
2.374610000E0,6.356420428E-1,-5.486267030E-1,-1.449357822E0,1.675013481E0
2.384572000E0,8.077530813E-1,-2.477131981E-1,-1.439764296E0,1.669355593E0
2.394533000E0,8.946883142E-1,-2.272929668E-2,-1.343987195E0,1.614709070E0
2.404495000E0,8.999531472E-1,5.062987089E-2,-1.220748940E0,1.517467306E0
2.414457000E0,8.869822687E-1,7.076388091E-2,-1.058200145E0,1.382581867E0
2.424418000E0,9.807499731E-1,3.419130117E-2,-8.003879285E-1,1.266357134E0
2.434380000E0,1.036017271E0,-3.305431008E-2,-3.845222569E-1,1.105568514E0
2.444341000E0,9.832221758E-1,-1.488487682E-1,-8.268255293E-3,9.944597362E-1
2.454303000E0,9.291406935E-1,-2.330033576E-1,2.741040212E-1,9.963563657E-1
2.464264000E0,8.415909183E-1,-2.424755546E-1,5.130501965E-1,1.015032104E0
2.474226000E0,6.589431971E-1,-2.947964403E-1,6.641580364E-1,9.809265903E-1
2.484187000E0,4.188378114E-1,-3.150956342E-1,6.624331078E-1,8.447058619E-1
2.494149000E0,2.254768217E-1,-3.340049449E-1,5.034698260E-1,6.448883360E-1
2.504111000E0,1.382451349E-1,-3.275206751E-1,2.738829964E-1,4.487687664E-1
2.514072000E0,2.127649748E-1,-2.340754446E-1,1.044534910E-1,3.331227703E-1
2.524034000E0,3.184212381E-1,-1.366348118E-1,-1.125118312E-1,3.643076568E-1
2.533995000E0,4.806732863E-1,-8.270331055E-2,-2.229607648E-1,5.362817808E-1
2.543957000E0,5.834170514E-1,-4.475458860E-3,-2.076527542E-1,6.192860017E-1
2.553918000E0,5.614905775E-1,8.432562053E-3,-1.902432543E-1,5.929041006E-1
2.563880000E0,4.787448746E-1,1.184295058E-2,-2.065452915E-1,5.215341483E-1
2.573841000E0,3.265026748E-1,-4.472535253E-2,-2.179005843E-1,3.950759655E-1
2.583803000E0,1.057457256E-1,-1.567726225E-1,-2.144445875E-1,2.859130895E-1
2.593765000E0,-1.097703642E-1,-3.062432420E-1,-2.823322231E-1,4.307504386E-1
2.603726000E0,-1.438830203E-1,-4.442957112E-1,-2.718423182E-1,5.403695481E-1
2.613688000E0,3.507861614E-2,-4.165889722E-1,-1.482871431E-1,4.435830902E-1
2.623649000E0,2.718072349E-1,-3.002442911E-1,1.880786151E-2,4.054374711E-1
2.633611000E0,3.805964363E-1,-2.479231131E-1,1.206026235E-1,4.699622433E-1
2.643572000E0,4.487205917E-1,-1.685264030E-1,1.403559798E-1,4.994508174E-1
2.653534000E0,4.781414419E-1,-6.773414612E-3,5.225276560E-2,4.810358294E-1
2.663495000E0,4.821982402E-1,1.314082780E-1,-6.737103403E-2,5.043036135E-1
2.673457000E0,4.397761059E-1,2.013871703E-1,-1.786122653E-1,5.156182279E-1
2.683418000E0,4.365472734E-1,2.705956918E-1,-1.720171908E-1,5.416506847E-1
2.693380000E0,3.552750689E-1,3.193383738E-1,5.006093681E-2,4.803160095E-1
2.703341667E0,1.695025957E-1,3.499520561E-1,1.937007129E-1,4.344163184E-1
